20	111
20.02	110
20.04	100
20.06	93
20.08	121
20.1	96
20.12	96
20.14	107
20.16	107
20.18	118
20.2	92
20.22	114
20.24	97
20.26	90
20.28	108
20.3	99
20.32	96
20.34	100
20.36	89
20.38	115
20.4	90
20.42	102
20.44	100
20.46	98
20.48	81
20.5	99
20.52	121
20.54	93
20.56	105
20.58	94
20.6	97
20.62	96
20.64	107
20.66	77
20.68	89
20.7	102
20.72	82
20.74	83
20.76	113
20.78	95
20.8	69
20.82	98
20.84	93
20.86	108
20.88	85
20.9	91
20.92	98
20.94	94
20.96	90
20.98	101
21	83
21.02	104
21.04	95
21.06	110
21.08	94
21.1	99
21.12	91
21.14	95
21.16	100
21.18	82
21.2	100
21.22	93
21.24	105
21.26	91
21.28	98
21.3	88
21.32	79
21.34	90
21.36	83
21.38	97
21.4	79
21.42	76
21.44	87
21.46	83
21.48	91
21.5	99
21.52	96
21.54	85
21.56	94
21.58	69
21.6	96
21.62	85
21.64	76
21.66	86
21.68	90
21.7	95
21.72	84
21.74	76
21.76	84
21.78	78
21.8	86
21.82	85
21.84	89
21.86	84
21.88	84
21.9	86
21.92	77
21.94	96
21.96	83
21.98	106
22	89
22.02	83
22.04	68
22.06	76
22.08	108
22.1	90
22.12	86
22.14	91
22.16	99
22.18	70
22.2	93
22.22	84
22.24	77
22.26	90
22.28	83
22.3	63
22.32	85
22.34	98
22.36	78
22.38	79
22.4	89
22.42	83
22.44	73
22.46	78
22.48	89
22.5	82
22.52	97
22.54	96
22.56	84
22.58	88
22.6	89
22.62	77
22.64	65
22.66	75
22.68	91
22.7	86
22.72	82
22.74	86
22.76	77
22.78	106
22.8	73
22.82	89
22.84	82
22.86	79
22.88	88
22.9	86
22.92	79
22.94	77
22.96	86
22.98	90
23	81
23.02	76
23.04	79
23.06	68
23.08	90
23.1	79
23.12	83
23.14	78
23.16	65
23.18	68
23.2	84
23.22	70
23.24	82
23.26	89
23.28	82
23.3	83
23.32	79
23.34	81
23.36	59
23.38	73
23.4	78
23.42	74
23.44	85
23.46	79
23.48	70
23.5	80
23.52	74
23.54	68
23.56	79
23.58	68
23.6	79
23.62	64
23.64	71
23.66	74
23.68	83
23.7	59
23.72	70
23.74	86
23.76	72
23.78	64
23.8	70
23.82	73
23.84	72
23.86	74
23.88	85
23.9	94
23.92	81
23.94	84
23.96	69
23.98	82
24	68
24.02	83
24.04	64
24.06	68
24.08	72
24.1	72
24.12	84
24.14	86
24.16	71
24.18	77
24.2	74
24.22	54
24.24	78
24.26	77
24.28	81
24.3	69
24.32	78
24.34	78
24.36	82
24.38	83
24.4	71
24.42	81
24.44	75
24.46	68
24.48	64
24.5	83
24.52	80
24.54	78
24.56	72
24.58	67
24.6	79
24.62	48
24.64	84
24.66	80
24.68	81
24.7	85
24.72	81
24.74	77
24.76	78
24.78	66
24.8	76
24.82	68
24.84	70
24.86	69
24.88	82
24.9	77
24.92	68
24.94	71
24.96	49
24.98	71
25	63
25.02	58
25.04	85
25.06	64
25.08	80
25.1	65
25.12	70
25.14	70
25.16	66
25.18	71
25.2	66
25.22	57
25.24	76
25.26	68
25.28	87
25.3	65
25.32	50
25.34	62
25.36	73
25.38	74
25.4	78
25.42	71
25.44	73
25.46	70
25.48	76
25.5	78
25.52	70
25.54	73
25.56	69
25.58	67
25.6	73
25.62	81
25.64	73
25.66	71
25.68	96
25.7	74
25.72	71
25.74	74
25.76	72
25.78	73
25.8	52
25.82	69
25.84	62
25.86	62
25.88	70
25.9	81
25.92	61
25.94	76
25.96	68
25.98	55
26	58
26.02	73
26.04	80
26.06	74
26.08	73
26.1	61
26.12	68
26.14	66
26.16	52
26.18	67
26.2	79
26.22	68
26.24	60
26.26	71
26.28	64
26.3	85
26.32	76
26.34	51
26.36	101
26.38	65
26.4	68
26.42	72
26.44	67
26.46	79
26.48	48
26.5	68
26.52	64
26.54	77
26.56	70
26.58	77
26.6	87
26.62	72
26.64	88
26.66	82
26.68	69
26.7	67
26.72	67
26.74	73
26.76	77
26.78	73
26.8	75
26.82	84
26.84	75
26.86	75
26.88	77
26.9	62
26.92	81
26.94	82
26.96	89
26.98	60
27	80
27.02	83
27.04	78
27.06	68
27.08	76
27.1	68
27.12	80
27.14	76
27.16	88
27.18	72
27.2	81
27.22	63
27.24	65
27.26	68
27.28	68
27.3	59
27.32	80
27.34	79
27.36	71
27.38	61
27.4	80
27.42	82
27.44	77
27.46	70
27.48	75
27.5	98
27.52	76
27.54	92
27.56	80
27.58	61
27.6	71
27.62	74
27.64	84
27.66	91
27.68	77
27.7	91
27.72	60
27.74	72
27.76	76
27.78	87
27.8	82
27.82	92
27.84	100
27.86	85
27.88	96
27.9	108
27.92	98
27.94	94
27.96	112
27.98	106
28	101
28.02	113
28.04	125
28.06	116
28.08	128
28.1	124
28.12	131
28.14	145
28.16	158
28.18	171
28.2	216
28.22	232
28.24	269
28.26	301
28.28	363
28.3	448
28.32	611
28.34	640
28.36	866
28.38	1136
28.4	1500
28.42	1894
28.44	2631
28.46	3637
28.48	4878
28.5	6272
28.52	7630
28.54	8123
28.56	7306
28.58	6225
28.6	5022
28.62	3768
28.64	2885
28.66	1798
28.68	950
28.7	561
28.72	404
28.74	338
28.76	321
28.78	254
28.8	219
28.82	197
28.84	169
28.86	173
28.88	126
28.9	151
28.92	136
28.94	122
28.96	108
28.98	107
29	96
29.02	121
29.04	101
29.06	99
29.08	104
29.1	88
29.12	93
29.14	76
29.16	90
29.18	74
29.2	96
29.22	96
29.24	90
29.26	80
29.28	105
29.3	87
29.32	79
29.34	80
29.36	84
29.38	70
29.4	72
29.42	74
29.44	79
29.46	86
29.48	89
29.5	82
29.52	93
29.54	64
29.56	94
29.58	72
29.6	75
29.62	62
29.64	80
29.66	71
29.68	69
29.7	62
29.72	87
29.74	79
29.76	79
29.78	85
29.8	86
29.82	80
29.84	72
29.86	71
29.88	91
29.9	78
29.92	73
29.94	79
29.96	76
29.98	86
30	76
30.02	77
30.04	96
30.06	73
30.08	69
30.1	70
30.12	81
30.14	64
30.16	59
30.18	82
30.2	72
30.22	86
30.24	73
30.26	72
30.28	67
30.3	71
30.32	67
30.34	77
30.36	73
30.38	74
30.4	68
30.42	64
30.44	76
30.46	56
30.48	61
30.5	63
30.52	74
30.54	70
30.56	68
30.58	69
30.6	77
30.62	64
30.64	65
30.66	70
30.68	53
30.7	73
30.72	76
30.74	72
30.76	76
30.78	85
30.8	72
30.82	63
30.84	69
30.86	76
30.88	63
30.9	76
30.92	68
30.94	84
30.96	69
30.98	84
31	73
31.02	67
31.04	86
31.06	64
31.08	70
31.1	65
31.12	68
31.14	77
31.16	72
31.18	69
31.2	74
31.22	65
31.24	67
31.26	68
31.28	64
31.3	64
31.32	63
31.34	70
31.36	70
31.38	60
31.4	90
31.42	69
31.44	72
31.46	69
31.48	76
31.5	76
31.52	78
31.54	74
31.56	78
31.58	74
31.6	89
31.62	65
31.64	79
31.66	66
31.68	67
31.7	83
31.72	65
31.74	80
31.76	66
31.78	68
31.8	69
31.82	74
31.84	68
31.86	59
31.88	55
31.9	62
31.92	55
31.94	70
31.96	75
31.98	66
32	63
32.02	50
32.04	68
32.06	64
32.08	72
32.1	61
32.12	72
32.14	66
32.16	64
32.18	65
32.2	74
32.22	57
32.24	62
32.26	80
32.28	77
32.3	60
32.32	52
32.34	68
32.36	58
32.38	72
32.4	53
32.42	53
32.44	74
32.46	63
32.48	61
32.5	62
32.52	50
32.54	52
32.56	51
32.58	72
32.6	69
32.62	75
32.64	63
32.66	59
32.68	71
32.7	54
32.72	67
32.74	81
32.76	77
32.78	71
32.8	62
32.82	66
32.84	76
32.86	56
32.88	69
32.9	63
32.92	67
32.94	77
32.96	76
32.98	64
33	57
33.02	54
33.04	66
33.06	60
33.08	78
33.1	66
33.12	64
33.14	59
33.16	48
33.18	57
33.2	58
33.22	66
33.24	71
33.26	52
33.28	58
33.3	52
33.32	59
33.34	66
33.36	49
33.38	74
33.4	64
33.42	82
33.44	52
33.46	70
33.48	65
33.5	39
33.52	56
33.54	55
33.56	64
33.58	47
33.6	55
33.62	52
33.64	63
33.66	64
33.68	64
33.7	70
33.72	62
33.74	78
33.76	60
33.78	54
33.8	49
33.82	62
33.84	58
33.86	56
33.88	57
33.9	80
33.92	70
33.94	63
33.96	59
33.98	62
34	56
34.02	58
34.04	60
34.06	61
34.08	59
34.1	53
34.12	55
34.14	62
34.16	64
34.18	61
34.2	48
34.22	64
34.24	63
34.26	66
34.28	69
34.3	51
34.32	69
34.34	50
34.36	50
34.38	54
34.4	47
34.42	57
34.44	48
34.46	46
34.48	57
34.5	66
34.52	48
34.54	50
34.56	60
34.58	57
34.6	74
34.62	66
34.64	57
34.66	61
34.68	76
34.7	67
34.72	64
34.74	64
34.76	54
34.78	62
34.8	47
34.82	62
34.84	54
34.86	43
34.88	57
34.9	56
34.92	50
34.94	65
34.96	56
34.98	62
35	55
35.02	57
35.04	52
35.06	55
35.08	50
35.1	58
35.12	60
35.14	69
35.16	49
35.18	53
35.2	59
35.22	53
35.24	71
35.26	62
35.28	54
35.3	56
35.32	50
35.34	55
35.36	61
35.38	34
35.4	52
35.42	59
35.44	50
35.46	51
35.48	51
35.5	61
35.52	57
35.54	67
35.56	52
35.58	60
35.6	61
35.62	64
35.64	49
35.66	49
35.68	60
35.7	51
35.72	58
35.74	65
35.76	68
35.78	63
35.8	58
35.82	55
35.84	56
35.86	53
35.88	62
35.9	44
35.92	60
35.94	54
35.96	60
35.98	41
36	56
36.02	60
36.04	56
36.06	50
36.08	52
36.1	59
36.12	54
36.14	51
36.16	34
36.18	65
36.2	63
36.22	50
36.24	53
36.26	51
36.28	37
36.3	54
36.32	51
36.34	45
36.36	53
36.38	61
36.4	43
36.42	42
36.44	50
36.46	48
36.48	44
36.5	50
36.52	55
36.54	60
36.56	51
36.58	44
36.6	58
36.62	48
36.64	51
36.66	44
36.68	46
36.7	54
36.72	52
36.74	53
36.76	48
36.78	49
36.8	49
36.82	49
36.84	52
36.86	64
36.88	42
36.9	47
36.92	35
36.94	46
36.96	45
36.98	44
37	44
37.02	48
37.04	56
37.06	47
37.08	47
37.1	49
37.12	37
37.14	46
37.16	54
37.18	41
37.2	51
37.22	45
37.24	40
37.26	55
37.28	36
37.3	42
37.32	63
37.34	49
37.36	45
37.38	54
37.4	62
37.42	32
37.44	42
37.46	50
37.48	62
37.5	67
37.52	56
37.54	54
37.56	69
37.58	66
37.6	44
37.62	52
37.64	62
37.66	40
37.68	53
37.7	60
37.72	52
37.74	57
37.76	52
37.78	58
37.8	57
37.82	50
37.84	54
37.86	62
37.88	43
37.9	44
37.92	47
37.94	61
37.96	55
37.98	51
38	62
38.02	44
38.04	38
38.06	45
38.08	54
38.1	35
38.12	44
38.14	54
38.16	44
38.18	50
38.2	52
38.22	47
38.24	29
38.26	48
38.28	49
38.3	48
38.32	50
38.34	49
38.36	45
38.38	45
38.4	54
38.42	46
38.44	58
38.46	49
38.48	61
38.5	49
38.52	39
38.54	34
38.56	46
38.58	44
38.6	43
38.62	58
38.64	51
38.66	49
38.68	42
38.7	44
38.72	33
38.74	52
38.76	54
38.78	52
38.8	39
38.82	54
38.84	42
38.86	40
38.88	45
38.9	45
38.92	57
38.94	42
38.96	50
38.98	39
39	38
39.02	44
39.04	36
39.06	38
39.08	55
39.1	53
39.12	38
39.14	40
39.16	47
39.18	42
39.2	53
39.22	45
39.24	43
39.26	44
39.28	65
39.3	43
39.32	49
39.34	45
39.36	46
39.38	44
39.4	41
39.42	45
39.44	44
39.46	51
39.48	45
39.5	51
39.52	38
39.54	54
39.56	51
39.58	51
39.6	40
39.62	47
39.64	43
39.66	44
39.68	43
39.7	43
39.72	46
39.74	47
39.76	39
39.78	55
39.8	41
39.82	57
39.84	46
39.86	43
39.88	45
39.9	41
39.92	45
39.94	47
39.96	55
39.98	43
40	48
40.02	45
40.04	48
40.06	35
40.08	40
40.1	46
40.12	58
40.14	46
40.16	46
40.18	50
40.2	44
40.22	50
40.24	52
40.26	52
40.28	34
40.3	52
40.32	47
40.34	52
40.36	45
40.38	61
40.4	52
40.42	50
40.44	42
40.46	35
40.48	45
40.5	47
40.52	49
40.54	40
40.56	44
40.58	48
40.6	53
40.62	46
40.64	34
40.66	59
40.68	39
40.7	39
40.72	47
40.74	37
40.76	47
40.78	41
40.8	55
40.82	44
40.84	40
40.86	65
40.88	46
40.9	54
40.92	40
40.94	42
40.96	48
40.98	48
41	43
41.02	40
41.04	42
41.06	46
41.08	44
41.1	46
41.12	50
41.14	51
41.16	42
41.18	34
41.2	59
41.22	59
41.24	47
41.26	41
41.28	41
41.3	45
41.32	46
41.34	59
41.36	66
41.38	44
41.4	39
41.42	44
41.44	47
41.46	39
41.48	60
41.5	48
41.52	45
41.54	46
41.56	55
41.58	52
41.6	51
41.62	50
41.64	50
41.66	43
41.68	50
41.7	36
41.72	44
41.74	43
41.76	56
41.78	55
41.8	40
41.82	43
41.84	48
41.86	44
41.88	54
41.9	51
41.92	52
41.94	38
41.96	47
41.98	31
42	44
42.02	42
42.04	42
42.06	60
42.08	41
42.1	46
42.12	38
42.14	53
42.16	56
42.18	50
42.2	49
42.22	68
42.24	50
42.26	54
42.28	53
42.3	43
42.32	54
42.34	56
42.36	58
42.38	53
42.4	46
42.42	42
42.44	40
42.46	57
42.48	49
42.5	58
42.52	50
42.54	40
42.56	49
42.58	54
42.6	50
42.62	48
42.64	48
42.66	58
42.68	50
42.7	47
42.72	44
42.74	56
42.76	44
42.78	30
42.8	43
42.82	48
42.84	57
42.86	46
42.88	40
42.9	51
42.92	52
42.94	59
42.96	40
42.98	39
43	40
43.02	47
43.04	39
43.06	31
43.08	42
43.1	54
43.12	41
43.14	52
43.16	42
43.18	44
43.2	44
43.22	45
43.24	52
43.26	37
43.28	29
43.3	46
43.32	42
43.34	47
43.36	45
43.38	39
43.4	46
43.42	37
43.44	44
43.46	41
43.48	39
43.5	45
43.52	38
43.54	48
43.56	48
43.58	43
43.6	58
43.62	52
43.64	50
43.66	48
43.68	53
43.7	46
43.72	62
43.74	42
43.76	58
43.78	56
43.8	54
43.82	29
43.84	49
43.86	49
43.88	45
43.9	58
43.92	37
43.94	45
43.96	37
43.98	41
44	49
44.02	38
44.04	52
44.06	56
44.08	47
44.1	40
44.12	32
44.14	44
44.16	47
44.18	45
44.2	34
44.22	46
44.24	46
44.26	39
44.28	50
44.3	39
44.32	41
44.34	48
44.36	32
44.38	41
44.4	43
44.42	51
44.44	42
44.46	58
44.48	50
44.5	37
44.52	49
44.54	38
44.56	41
44.58	44
44.6	46
44.62	44
44.64	60
44.66	46
44.68	45
44.7	45
44.72	54
44.74	46
44.76	46
44.78	57
44.8	39
44.82	45
44.84	35
44.86	37
44.88	44
44.9	42
44.92	43
44.94	44
44.96	43
44.98	48
45	43
45.02	61
45.04	46
45.06	45
45.08	47
45.1	46
45.12	41
45.14	45
45.16	48
45.18	45
45.2	45
45.22	35
45.24	27
45.26	38
45.28	47
45.3	47
45.32	57
45.34	36
45.36	28
45.38	34
45.4	33
45.42	53
45.44	39
45.46	37
45.48	62
45.5	39
45.52	36
45.54	46
45.56	42
45.58	42
45.6	41
45.62	33
45.64	38
45.66	40
45.68	39
45.7	29
45.72	44
45.74	50
45.76	48
45.78	42
45.8	49
45.82	38
45.84	51
45.86	42
45.88	40
45.9	51
45.92	44
45.94	35
45.96	46
45.98	42
46	47
46.02	57
46.04	39
46.06	51
46.08	30
46.1	43
46.12	50
46.14	58
46.16	44
46.18	44
46.2	43
46.22	51
46.24	47
46.26	40
46.28	47
46.3	40
46.32	38
46.34	50
46.36	42
46.38	42
46.4	50
46.42	45
46.44	43
46.46	54
46.48	42
46.5	52
46.52	47
46.54	49
46.56	58
46.58	63
46.6	41
46.62	48
46.64	66
46.66	54
46.68	57
46.7	59
46.72	47
46.74	45
46.76	66
46.78	50
46.8	56
46.82	54
46.84	66
46.86	58
46.88	64
46.9	62
46.92	69
46.94	76
46.96	79
46.98	85
47	93
47.02	93
47.04	94
47.06	106
47.08	127
47.1	139
47.12	175
47.14	189
47.16	237
47.18	307
47.2	271
47.22	380
47.24	440
47.26	609
47.28	849
47.3	1193
47.32	1788
47.34	2753
47.36	4210
47.38	5237
47.4	5036
47.42	4209
47.44	2900
47.46	2107
47.48	2337
47.5	2800
47.52	2791
47.54	2214
47.56	1505
47.58	819
47.6	499
47.62	378
47.64	286
47.66	221
47.68	195
47.7	179
47.72	143
47.74	131
47.76	104
47.78	103
47.8	108
47.82	87
47.84	98
47.86	87
47.88	85
47.9	75
47.92	77
47.94	62
47.96	71
47.98	73
48	56
48.02	45
48.04	60
48.06	62
48.08	55
48.1	61
48.12	55
48.14	55
48.16	45
48.18	49
48.2	52
48.22	44
48.24	45
48.26	45
48.28	47
48.3	50
48.32	49
48.34	39
48.36	56
48.38	41
48.4	58
48.42	54
48.44	32
48.46	38
48.48	46
48.5	60
48.52	45
48.54	41
48.56	55
48.58	43
48.6	35
48.62	43
48.64	54
48.66	53
48.68	50
48.7	49
48.72	42
48.74	38
48.76	40
48.78	41
48.8	43
48.82	51
48.84	44
48.86	50
48.88	41
48.9	44
48.92	41
48.94	43
48.96	36
48.98	33
49	36
49.02	34
49.04	46
49.06	40
49.08	38
49.1	38
49.12	39
49.14	38
49.16	22
49.18	36
49.2	29
49.22	38
49.24	42
49.26	42
49.28	43
49.3	46
49.32	36
49.34	38
49.36	38
49.38	29
49.4	39
49.42	28
49.44	34
49.46	28
49.48	41
49.5	30
49.52	35
49.54	39
49.56	40
49.58	35
49.6	43
49.62	31
49.64	41
49.66	32
49.68	39
49.7	25
49.72	34
49.74	35
49.76	48
49.78	32
49.8	30
49.82	30
49.84	36
49.86	25
49.88	39
49.9	35
49.92	30
49.94	39
49.96	42
49.98	28
50	39
50.02	41
50.04	30
50.06	41
50.08	26
50.1	27
50.12	31
50.14	32
50.16	39
50.18	24
50.2	39
50.22	31
50.24	29
50.26	27
50.28	27
50.3	30
50.32	35
50.34	34
50.36	34
50.38	35
50.4	34
50.42	34
50.44	37
50.46	42
50.48	29
50.5	39
50.52	30
50.54	36
50.56	32
50.58	36
50.6	30
50.62	28
50.64	29
50.66	42
50.68	39
50.7	44
50.72	39
50.74	32
50.76	23
50.78	28
50.8	19
50.82	31
50.84	31
50.86	34
50.88	30
50.9	29
50.92	22
50.94	34
50.96	43
50.98	32
51	32
51.02	30
51.04	38
51.06	25
51.08	31
51.1	37
51.12	29
51.14	24
51.16	28
51.18	37
51.2	30
51.22	37
51.24	34
51.26	27
51.28	33
51.3	27
51.32	40
51.34	31
51.36	23
51.38	35
51.4	28
51.42	26
51.44	29
51.46	37
51.48	23
51.5	37
51.52	24
51.54	26
51.56	34
51.58	39
51.6	40
51.62	35
51.64	37
51.66	32
51.68	29
51.7	42
51.72	30
51.74	25
51.76	27
51.78	35
51.8	35
51.82	33
51.84	30
51.86	42
51.88	41
51.9	31
51.92	38
51.94	34
51.96	28
51.98	31
52	39
52.02	27
52.04	32
52.06	23
52.08	32
52.1	30
52.12	35
52.14	28
52.16	33
52.18	30
52.2	29
52.22	34
52.24	37
52.26	31
52.28	25
52.3	33
52.32	44
52.34	33
52.36	35
52.38	29
52.4	28
52.42	28
52.44	42
52.46	41
52.48	29
52.5	25
52.52	24
52.54	30
52.56	32
52.58	27
52.6	28
52.62	48
52.64	34
52.66	35
52.68	32
52.7	36
52.72	30
52.74	28
52.76	34
52.78	29
52.8	33
52.82	22
52.84	31
52.86	28
52.88	25
52.9	33
52.92	38
52.94	29
52.96	33
52.98	28
53	43
53.02	24
53.04	37
53.06	32
53.08	27
53.1	25
53.12	27
53.14	26
53.16	40
53.18	32
53.2	43
53.22	29
53.24	35
53.26	36
53.28	39
53.3	31
53.32	36
53.34	30
53.36	41
53.38	32
53.4	29
53.42	34
53.44	33
53.46	24
53.48	24
53.5	32
53.52	28
53.54	33
53.56	31
53.58	38
53.6	35
53.62	36
53.64	23
53.66	29
53.68	26
53.7	30
53.72	33
53.74	37
53.76	27
53.78	26
53.8	46
53.82	39
53.84	35
53.86	24
53.88	32
53.9	33
53.92	44
53.94	25
53.96	26
53.98	25
54	35
54.02	26
54.04	40
54.06	23
54.08	25
54.1	31
54.12	37
54.14	32
54.16	32
54.18	34
54.2	29
54.22	29
54.24	34
54.26	29
54.28	28
54.3	30
54.32	41
54.34	29
54.36	30
54.38	36
54.4	34
54.42	17
54.44	27
54.46	21
54.48	22
54.5	25
54.52	26
54.54	27
54.56	27
54.58	31
54.6	26
54.62	41
54.64	30
54.66	34
54.68	34
54.7	29
54.72	36
54.74	40
54.76	36
54.78	32
54.8	29
54.82	29
54.84	28
54.86	32
54.88	37
54.9	29
54.92	29
54.94	43
54.96	41
54.98	36
55	38
55.02	41
55.04	30
55.06	22
55.08	29
55.1	33
55.12	36
55.14	30
55.16	42
55.18	42
55.2	42
55.22	34
55.24	41
55.26	30
55.28	24
55.3	25
55.32	33
55.34	36
55.36	32
55.38	42
55.4	39
55.42	42
55.44	34
55.46	39
55.48	37
55.5	42
55.52	35
55.54	41
55.56	37
55.58	36
55.6	43
55.62	42
55.64	43
55.66	55
55.68	54
55.7	49
55.72	35
55.74	48
55.76	58
55.78	52
55.8	51
55.82	57
55.84	69
55.86	63
55.88	88
55.9	80
55.92	89
55.94	138
55.96	162
55.98	167
56	173
56.02	212
56.04	203
56.06	285
56.08	373
56.1	526
56.12	687
56.14	1110
56.16	1714
56.18	2490
56.2	2908
56.22	2744
56.24	2168
56.26	1387
56.28	1071
56.3	969
56.32	1196
56.34	1454
56.36	1540
56.38	1391
56.4	1042
56.42	610
56.44	375
56.46	247
56.48	178
56.5	141
56.52	135
56.54	96
56.56	84
56.58	95
56.6	70
56.62	67
56.64	59
56.66	68
56.68	64
56.7	58
56.72	54
56.74	57
56.76	38
56.78	54
56.8	50
56.82	30
56.84	47
56.86	39
56.88	35
56.9	47
56.92	43
56.94	40
56.96	40
56.98	51
57	39
57.02	36
57.04	44
57.06	40
57.08	41
57.1	24
57.12	36
57.14	29
57.16	34
57.18	29
57.2	24
57.22	28
57.24	30
57.26	25
57.28	26
57.3	26
57.32	32
57.34	28
57.36	35
57.38	27
57.4	29
57.42	30
57.44	28
57.46	24
57.48	38
57.5	27
57.52	27
57.54	29
57.56	31
57.58	33
57.6	27
57.62	23
57.64	27
57.66	37
57.68	34
57.7	41
57.72	27
57.74	34
57.76	20
57.78	25
57.8	26
57.82	30
57.84	29
57.86	30
57.88	30
57.9	29
57.92	25
57.94	26
57.96	36
57.98	18
58	30
58.02	18
58.04	34
58.06	22
58.08	25
58.1	29
58.12	17
58.14	22
58.16	16
58.18	19
58.2	20
58.22	23
58.24	25
58.26	37
58.28	14
58.3	29
58.32	32
58.34	28
58.36	15
58.38	17
58.4	20
58.42	36
58.44	28
58.46	25
58.48	24
58.5	24
58.52	23
58.54	27
58.56	24
58.58	30
58.6	23
58.62	19
58.64	20
58.66	14
58.68	23
58.7	30
58.72	33
58.74	23
58.76	14
58.78	28
58.8	30
58.82	28
58.84	32
58.86	26
58.88	31
58.9	28
58.92	38
58.94	11
58.96	22
58.98	33
59	21
59.02	24
59.04	23
59.06	29
59.08	26
59.1	23
59.12	30
59.14	18
59.16	21
59.18	30
59.2	26
59.22	23
59.24	23
59.26	27
59.28	24
59.3	28
59.32	29
59.34	26
59.36	29
59.38	25
59.4	32
59.42	38
59.44	25
59.46	25
59.48	26
59.5	27
59.52	19
59.54	25
59.56	20
59.58	27
59.6	29
59.62	20
59.64	26
59.66	28
59.68	23
59.7	25
59.72	23
59.74	21
59.76	21
59.78	28
59.8	28
59.82	18
59.84	21
59.86	26
59.88	29
59.9	16
59.92	13
59.94	28
59.96	21
59.98	25
60	20
60.02	22
60.04	34
60.06	25
60.08	13
60.1	23
60.12	22
60.14	18
60.16	23
60.18	23
60.2	22
60.22	20
60.24	32
60.26	29
60.28	38
60.3	20
60.32	32
60.34	32
60.36	25
60.38	20
60.4	27
60.42	22
60.44	26
60.46	20
60.48	17
60.5	22
60.52	17
60.54	26
60.56	29
60.58	25
60.6	21
60.62	23
60.64	23
60.66	23
60.68	29
60.7	31
60.72	22
60.74	32
60.76	28
60.78	25
60.8	27
60.82	21
60.84	28
60.86	25
60.88	25
60.9	30
60.92	22
60.94	24
60.96	30
60.98	34
61	28
61.02	24
61.04	17
61.06	19
61.08	18
61.1	29
61.12	20
61.14	34
61.16	27
61.18	29
61.2	27
61.22	31
61.24	26
61.26	24
61.28	25
61.3	23
61.32	25
61.34	18
61.36	23
61.38	28
61.4	27
61.42	19
61.44	18
61.46	29
61.48	25
61.5	18
61.52	22
61.54	31
61.56	20
61.58	34
61.6	22
61.62	19
61.64	25
61.66	23
61.68	23
61.7	19
61.72	26
61.74	24
61.76	18
61.78	23
61.8	27
61.82	22
61.84	20
61.86	30
61.88	22
61.9	23
61.92	18
61.94	19
61.96	18
61.98	27
62	21
62.02	16
62.04	20
62.06	20
62.08	17
62.1	17
62.12	19
62.14	36
62.16	16
62.18	18
62.2	30
62.22	23
62.24	30
62.26	34
62.28	18
62.3	32
62.32	18
62.34	31
62.36	20
62.38	19
62.4	26
62.42	30
62.44	24
62.46	26
62.48	31
62.5	26
62.52	29
62.54	25
62.56	21
62.58	20
62.6	22
62.62	20
62.64	23
62.66	23
62.68	16
62.7	28
62.72	20
62.74	17
62.76	22
62.78	21
62.8	18
62.82	31
62.84	23
62.86	21
62.88	25
62.9	21
62.92	21
62.94	26
62.96	22
62.98	23
63	23
63.02	15
63.04	32
63.06	26
63.08	26
63.1	19
63.12	17
63.14	22
63.16	23
63.18	26
63.2	17
63.22	19
63.24	21
63.26	24
63.28	29
63.3	30
63.32	27
63.34	32
63.36	20
63.38	21
63.4	24
63.42	24
63.44	21
63.46	19
63.48	20
63.5	29
63.52	25
63.54	18
63.56	30
63.58	19
63.6	20
63.62	17
63.64	24
63.66	23
63.68	23
63.7	17
63.72	24
63.74	18
63.76	23
63.78	19
63.8	23
63.82	20
63.84	24
63.86	25
63.88	20
63.9	23
63.92	21
63.94	15
63.96	23
63.98	12
64	24
64.02	25
64.04	16
64.06	14
64.08	23
64.1	20
64.12	15
64.14	23
64.16	25
64.18	24
64.2	20
64.22	24
64.24	23
64.26	24
64.28	20
64.3	16
64.32	26
64.34	16
64.36	32
64.38	34
64.4	19
64.42	24
64.44	25
64.46	20
64.48	24
64.5	23
64.52	19
64.54	29
64.56	22
64.58	24
64.6	19
64.62	24
64.64	19
64.66	25
64.68	16
64.7	32
64.72	21
64.74	27
64.76	28
64.78	9
64.8	20
64.82	28
64.84	25
64.86	23
64.88	27
64.9	18
64.92	19
64.94	22
64.96	15
64.98	23
65	21
65.02	26
65.04	21
65.06	22
65.08	18
65.1	23
65.12	20
65.14	18
65.16	25
65.18	22
65.2	19
65.22	24
65.24	22
65.26	15
65.28	15
65.3	23
65.32	22
65.34	30
65.36	21
65.38	27
65.4	23
65.42	16
65.44	15
65.46	30
65.48	27
65.5	17
65.52	24
65.54	26
65.56	25
65.58	23
65.6	22
65.62	26
65.64	18
65.66	22
65.68	19
65.7	17
65.72	21
65.74	19
65.76	20
65.78	33
65.8	27
65.82	24
65.84	23
65.86	22
65.88	29
65.9	23
65.92	27
65.94	18
65.96	16
65.98	19
66	17
66.02	18
66.04	24
66.06	16
66.08	20
66.1	19
66.12	13
66.14	22
66.16	24
66.18	13
66.2	23
66.22	19
66.24	21
66.26	25
66.28	15
66.3	18
66.32	15
66.34	22
66.36	21
66.38	21
66.4	19
66.42	22
66.44	19
66.46	27
66.48	20
66.5	26
66.52	15
66.54	23
66.56	25
66.58	21
66.6	17
66.62	19
66.64	23
66.66	11
66.68	27
66.7	21
66.72	21
66.74	19
66.76	19
66.78	20
66.8	19
66.82	20
66.84	19
66.86	23
66.88	16
66.9	19
66.92	18
66.94	14
66.96	24
66.98	20
67	26
67.02	18
67.04	22
67.06	14
67.08	13
67.1	18
67.12	13
67.14	27
67.16	24
67.18	24
67.2	24
67.22	26
67.24	15
67.26	19
67.28	24
67.3	17
67.32	24
67.34	21
67.36	17
67.38	19
67.4	21
67.42	15
67.44	12
67.46	19
67.48	18
67.5	28
67.52	27
67.54	19
67.56	23
67.58	27
67.6	20
67.62	24
67.64	20
67.66	20
67.68	26
67.7	13
67.72	18
67.74	30
67.76	23
67.78	20
67.8	14
67.82	18
67.84	32
67.86	34
67.88	26
67.9	17
67.92	14
67.94	17
67.96	19
67.98	20
68	22
68.02	20
68.04	26
68.06	18
68.08	25
68.1	19
68.12	18
68.14	21
68.16	23
68.18	25
68.2	30
68.22	25
68.24	23
68.26	17
68.28	19
68.3	21
68.32	25
68.34	19
68.36	25
68.38	28
68.4	26
68.42	20
68.44	28
68.46	34
68.48	23
68.5	30
68.52	25
68.54	24
68.56	26
68.58	16
68.6	20
68.62	21
68.64	24
68.66	24
68.68	19
68.7	17
68.72	28
68.74	21
68.76	37
68.78	37
68.8	22
68.82	35
68.84	28
68.86	36
68.88	40
68.9	34
68.92	48
68.94	49
68.96	50
68.98	48
69	54
69.02	62
69.04	77
69.06	82
69.08	117
69.1	123
69.12	162
69.14	273
69.16	362
69.18	494
69.2	600
69.22	654
69.24	520
69.26	409
69.28	272
69.3	202
69.32	160
69.34	181
69.36	235
69.38	281
69.4	342
69.42	309
69.44	279
69.46	232
69.48	136
69.5	84
69.52	92
69.54	44
69.56	54
69.58	50
69.6	55
69.62	42
69.64	37
69.66	40
69.68	31
69.7	27
69.72	27
69.74	35
69.76	26
69.78	22
69.8	36
69.82	29
69.84	28
69.86	26
69.88	24
69.9	17
69.92	18
69.94	23
69.96	22
69.98	16
70	24
70.02	30
70.04	15
70.06	22
70.08	19
70.1	17
70.12	22
70.14	24
70.16	26
70.18	19
70.2	20
70.22	23
70.24	19
70.26	24
70.28	27
70.3	27
70.32	18
70.34	22
70.36	22
70.38	17
70.4	21
70.42	28
70.44	25
70.46	12
70.48	16
70.5	17
70.52	24
70.54	17
70.56	24
70.58	26
70.6	14
70.62	20
70.64	19
70.66	14
70.68	18
70.7	34
70.72	17
70.74	19
70.76	20
70.78	22
70.8	28
70.82	30
70.84	26
70.86	26
70.88	25
70.9	18
70.92	22
70.94	21
70.96	16
70.98	21
71	22
71.02	19
71.04	18
71.06	28
71.08	23
71.1	17
71.12	25
71.14	24
71.16	22
71.18	24
71.2	17
71.22	18
71.24	18
71.26	24
71.28	19
71.3	15
71.32	16
71.34	16
71.36	26
71.38	18
71.4	19
71.42	22
71.44	18
71.46	17
71.48	17
71.5	26
71.52	18
71.54	21
71.56	23
71.58	22
71.6	15
71.62	17
71.64	18
71.66	22
71.68	24
71.7	26
71.72	18
71.74	25
71.76	21
71.78	16
71.8	21
71.82	24
71.84	23
71.86	33
71.88	25
71.9	24
71.92	21
71.94	20
71.96	27
71.98	25
72	15
72.02	18
72.04	14
72.06	18
72.08	21
72.1	26
72.12	17
72.14	19
72.16	23
72.18	18
72.2	25
72.22	17
72.24	18
72.26	11
72.28	22
72.3	18
72.32	17
72.34	22
72.36	25
72.38	15
72.4	18
72.42	33
72.44	28
72.46	25
72.48	21
72.5	20
72.52	15
72.54	18
72.56	16
72.58	16
72.6	21
72.62	20
72.64	19
72.66	16
72.68	21
72.7	19
72.72	24
72.74	24
72.76	17
72.78	14
72.8	21
72.82	21
72.84	21
72.86	20
72.88	16
72.9	22
72.92	17
72.94	24
72.96	20
72.98	26
73	17
73.02	23
73.04	21
73.06	16
73.08	21
73.1	21
73.12	18
73.14	18
73.16	13
73.18	26
73.2	16
73.22	16
73.24	24
73.26	25
73.28	23
73.3	13
73.32	21
73.34	18
73.36	22
73.38	14
73.4	20
73.42	28
73.44	27
73.46	18
73.48	17
73.5	24
73.52	29
73.54	20
73.56	19
73.58	21
73.6	19
73.62	21
73.64	20
73.66	13
73.68	22
73.7	22
73.72	18
73.74	18
73.76	15
73.78	18
73.8	16
73.82	20
73.84	28
73.86	21
73.88	19
73.9	27
73.92	20
73.94	19
73.96	23
73.98	25
74	17
74.02	20
74.04	21
74.06	25
74.08	22
74.1	16
74.12	18
74.14	25
74.16	24
74.18	19
74.2	23
74.22	26
74.24	23
74.26	16
74.28	18
74.3	17
74.32	22
74.34	19
74.36	18
74.38	13
74.4	18
74.42	17
74.44	24
74.46	22
74.48	19
74.5	25
74.52	17
74.54	21
74.56	22
74.58	16
74.6	25
74.62	20
74.64	26
74.66	23
74.68	20
74.7	26
74.72	26
74.74	25
74.76	20
74.78	23
74.8	23
74.82	21
74.84	16
74.86	24
74.88	24
74.9	17
74.92	21
74.94	27
74.96	20
74.98	22
75	23
75.02	20
75.04	29
75.06	27
75.08	24
75.1	15
75.12	15
75.14	21
75.16	16
75.18	17
75.2	20
75.22	24
75.24	28
75.26	28
75.28	22
75.3	18
75.32	22
75.34	19
75.36	29
75.38	14
75.4	25
75.42	24
75.44	25
75.46	29
75.48	22
75.5	22
75.52	20
75.54	26
75.56	30
75.58	17
75.6	14
75.62	28
75.64	38
75.66	21
75.68	36
75.7	19
75.72	32
75.74	32
75.76	23
75.78	26
75.8	18
75.82	21
75.84	26
75.86	24
75.88	27
75.9	25
75.92	29
75.94	26
75.96	33
75.98	41
76	28
76.02	45
76.04	29
76.06	34
76.08	53
76.1	40
76.12	45
76.14	39
76.16	43
76.18	44
76.2	65
76.22	53
76.24	71
76.26	78
76.28	96
76.3	121
76.32	139
76.34	188
76.36	274
76.38	351
76.4	567
76.42	846
76.44	1097
76.46	1159
76.48	968
76.5	663
76.52	426
76.54	340
76.56	259
76.58	242
76.6	273
76.62	317
76.64	441
76.66	564
76.68	640
76.7	570
76.72	401
76.74	268
76.76	182
76.78	164
76.8	109
76.82	83
76.84	76
76.86	57
76.88	49
76.9	45
76.92	44
76.94	45
76.96	36
76.98	38
77	34
77.02	21
77.04	41
77.06	44
77.08	29
77.1	34
77.12	32
77.14	34
77.16	33
77.18	25
77.2	30
77.22	29
77.24	31
77.26	32
77.28	25
77.3	25
77.32	33
77.34	23
77.36	13
77.38	30
77.4	25
77.42	30
77.44	26
77.46	27
77.48	18
77.5	19
77.52	26
77.54	25
77.56	24
77.58	29
77.6	21
77.62	28
77.64	26
77.66	22
77.68	20
77.7	20
77.72	21
77.74	26
77.76	22
77.78	17
77.8	27
77.82	27
77.84	20
77.86	19
77.88	21
77.9	29
77.92	25
77.94	17
77.96	22
77.98	21
78	19
78.02	17
78.04	18
78.06	24
78.08	20
78.1	15
78.12	20
78.14	24
78.16	15
78.18	11
78.2	33
78.22	17
78.24	28
78.26	35
78.28	15
78.3	22
78.32	22
78.34	18
78.36	26
78.38	20
78.4	11
78.42	19
78.44	22
78.46	27
78.48	20
78.5	21
78.52	16
78.54	23
78.56	17
78.58	18
78.6	19
78.62	28
78.64	26
78.66	28
78.68	28
78.7	17
78.72	25
78.74	21
78.76	15
78.78	19
78.8	18
78.82	22
78.84	20
78.86	19
78.88	16
78.9	25
78.92	27
78.94	14
78.96	16
78.98	27
79	17
79.02	30
79.04	27
79.06	25
79.08	16
79.1	25
79.12	7
79.14	18
79.16	19
79.18	18
79.2	17
79.22	13
79.24	13
79.26	21
79.28	21
79.3	19
79.32	20
79.34	22
79.36	15
79.38	20
79.4	16
79.42	16
79.44	11
79.46	21
79.48	20
79.5	18
79.52	14
79.54	25
79.56	20
79.58	19
79.6	22
79.62	25
79.64	15
79.66	16
79.68	13
79.7	18
79.72	15
79.74	25
79.76	18
79.78	21
79.8	32
79.82	14
79.84	20
79.86	24
79.88	15
79.9	19
79.92	26
79.94	12
79.96	16
79.98	16
80	22
80.02	25
80.04	18
80.06	16
80.08	21
80.1	23
80.12	14
80.14	22
80.16	17
80.18	34
80.2	18
80.22	23
80.24	16
80.26	29
80.28	16
80.3	24
80.32	27
80.34	12
80.36	24
80.38	24
80.4	18
80.42	25
80.44	25
80.46	17
80.48	14
80.5	23
80.52	14
80.54	21
80.56	19
80.58	18
80.6	16
80.62	16
80.64	22
80.66	22
80.68	22
80.7	13
80.72	11
80.74	25
80.76	16
80.78	13
80.8	18
80.82	12
80.84	18
80.86	18
80.88	20
80.9	15
80.92	21
80.94	18
80.96	20
80.98	17
81	30
81.02	18
81.04	14
81.06	26
81.08	13
81.1	22
81.12	9
81.14	17
81.16	30
81.18	19
81.2	21
81.22	17
81.24	12
81.26	14
81.28	16
81.3	22
81.32	24
81.34	20
81.36	21
81.38	32
81.4	18
81.42	12
81.44	16
81.46	18
81.48	24
81.5	22
81.52	12
81.54	19
81.56	14
81.58	18
81.6	21
81.62	22
81.64	18
81.66	13
81.68	23
81.7	21
81.72	21
81.74	20
81.76	22
81.78	19
81.8	19
81.82	18
81.84	23
81.86	19
81.88	20
81.9	24
81.92	14
81.94	20
81.96	17
81.98	28
82	25
82.02	24
82.04	14
82.06	20
82.08	20
82.1	21
82.12	27
82.14	16
82.16	23
82.18	21
82.2	16
82.22	29
82.24	18
82.26	28
82.28	22
82.3	18
82.32	17
82.34	13
82.36	27
82.38	20
82.4	17
82.42	17
82.44	21
82.46	16
82.48	20
82.5	24
82.52	27
82.54	20
82.56	20
82.58	23
82.6	14
82.62	19
82.64	24
82.66	12
82.68	23
82.7	13
82.72	14
82.74	19
82.76	22
82.78	19
82.8	17
82.82	28
82.84	15
82.86	19
82.88	20
82.9	16
82.92	19
82.94	24
82.96	13
82.98	19
83	19
83.02	20
83.04	29
83.06	22
83.08	26
83.1	16
83.12	24
83.14	20
83.16	19
83.18	17
83.2	16
83.22	19
83.24	24
83.26	18
83.28	20
83.3	28
83.32	19
83.34	24
83.36	16
83.38	18
83.4	19
83.42	22
83.44	25
83.46	22
83.48	24
83.5	20
83.52	20
83.54	16
83.56	22
83.58	21
83.6	18
83.62	22
83.64	19
83.66	18
83.68	24
83.7	16
83.72	16
83.74	12
83.76	19
83.78	12
83.8	18
83.82	28
83.84	22
83.86	19
83.88	31
83.9	10
83.92	17
83.94	27
83.96	20
83.98	15
84	28
84.02	18
84.04	17
84.06	20
84.08	21
84.1	12
84.12	23
84.14	27
84.16	21
84.18	13
84.2	11
84.22	15
84.24	25
84.26	21
84.28	22
84.3	23
84.32	24
84.34	21
84.36	21
84.38	15
84.4	15
84.42	25
84.44	20
84.46	21
84.48	24
84.5	29
84.52	16
84.54	24
84.56	31
84.58	32
84.6	23
84.62	20
84.64	31
84.66	19
84.68	14
84.7	22
84.72	12
84.74	22
84.76	21
84.78	20
84.8	18
84.82	21
84.84	15
84.86	26
84.88	21
84.9	20
84.92	25
84.94	26
84.96	26
84.98	23
85	26
85.02	12
85.04	20
85.06	15
85.08	15
85.1	26
85.12	20
85.14	29
85.16	27
85.18	19
85.2	21
85.22	19
85.24	16
85.26	25
85.28	28
85.3	20
85.32	20
85.34	22
85.36	24
85.38	33
85.4	21
85.42	21
85.44	19
85.46	13
85.48	17
85.5	21
85.52	21
85.54	11
85.56	15
85.58	21
85.6	26
85.62	19
85.64	19
85.66	24
85.68	12
85.7	21
85.72	20
85.74	26
85.76	25
85.78	20
85.8	14
85.82	20
85.84	21
85.86	23
85.88	20
85.9	25
85.92	20
85.94	20
85.96	23
85.98	26
86	14
86.02	19
86.04	18
86.06	16
86.08	25
86.1	19
86.12	24
86.14	14
86.16	20
86.18	26
86.2	15
86.22	23
86.24	32
86.26	23
86.28	24
86.3	22
86.32	15
86.34	24
86.36	19
86.38	28
86.4	16
86.42	16
86.44	24
86.46	25
86.48	24
86.5	19
86.52	22
86.54	10
86.56	17
86.58	24
86.6	22
86.62	25
86.64	18
86.66	19
86.68	23
86.7	32
86.72	18
86.74	17
86.76	14
86.78	23
86.8	21
86.82	17
86.84	20
86.86	17
86.88	17
86.9	22
86.92	24
86.94	25
86.96	26
86.98	21
87	25
87.02	30
87.04	16
87.06	24
87.08	26
87.1	15
87.12	20
87.14	17
87.16	26
87.18	33
87.2	29
87.22	22
87.24	31
87.26	15
87.28	21
87.3	27
87.32	25
87.34	28
87.36	33
87.38	24
87.4	30
87.42	24
87.44	30
87.46	24
87.48	35
87.5	32
87.52	46
87.54	31
87.56	33
87.58	39
87.6	44
87.62	34
87.64	33
87.66	35
87.68	40
87.7	55
87.72	65
87.74	49
87.76	51
87.78	69
87.8	55
87.82	66
87.84	89
87.86	79
87.88	94
87.9	118
87.92	117
87.94	124
87.96	147
87.98	216
88	255
88.02	361
88.04	541
88.06	735
88.08	1045
88.1	1270
88.12	1261
88.14	967
88.16	681
88.18	398
88.2	342
88.22	259
88.24	223
88.26	226
88.28	240
88.3	270
88.32	340
88.34	454
88.36	563
88.38	626
88.4	619
88.42	487
88.44	382
88.46	254
88.48	190
88.5	148
88.52	129
88.54	81
88.56	77
88.58	74
88.6	63
88.62	55
88.64	57
88.66	33
88.68	38
88.7	37
88.72	40
88.74	29
88.76	48
88.78	31
88.8	31
88.82	30
88.84	26
88.86	19
88.88	17
88.9	27
88.92	31
88.94	25
88.96	33
88.98	30
89	26
89.02	29
89.04	32
89.06	30
89.08	34
89.1	26
89.12	38
89.14	27
89.16	27
89.18	21
89.2	26
89.22	27
89.24	30
89.26	36
89.28	27
89.3	19
89.32	21
89.34	23
89.36	27
89.38	25
89.4	19
89.42	18
89.44	22
89.46	27
89.48	23
89.5	23
89.52	19
89.54	19
89.56	25
89.58	27
89.6	18
89.62	23
89.64	26
89.66	19
89.68	25
89.7	19
89.72	12
89.74	18
89.76	29
89.78	21
89.8	26
89.82	22
89.84	19
89.86	21
89.88	21
89.9	20
89.92	28
89.94	20
89.96	19
89.98	23
90	17
90.02	24
90.04	20
90.06	21
90.08	18
90.1	23
90.12	30
90.14	17
90.16	31
90.18	23
90.2	25
90.22	18
90.24	24
90.26	14
90.28	19
90.3	15
90.32	17
90.34	18
90.36	18
90.38	27
90.4	17
90.42	18
90.44	17
90.46	15
90.48	19
90.5	21
90.52	28
90.54	15
90.56	10
90.58	19
90.6	15
90.62	17
90.64	30
90.66	22
90.68	16
90.7	18
90.72	15
90.74	29
90.76	25
90.78	14
90.8	16
90.82	18
90.84	18
90.86	28
90.88	29
90.9	21
90.92	19
90.94	24
90.96	27
90.98	21
91	18
91.02	20
91.04	11
91.06	25
91.08	24
91.1	19
91.12	15
91.14	20
91.16	18
91.18	16
91.2	27
91.22	22
91.24	16
91.26	16
91.28	18
91.3	19
91.32	16
91.34	31
91.36	11
91.38	21
91.4	26
91.42	24
91.44	17
91.46	22
91.48	22
91.5	19
91.52	15
91.54	22
91.56	22
91.58	11
91.6	13
91.62	18
91.64	23
91.66	23
91.68	18
91.7	24
91.72	17
91.74	34
91.76	19
91.78	17
91.8	17
91.82	14
91.84	14
91.86	24
91.88	22
91.9	16
91.92	15
91.94	26
91.96	18
91.98	32
92	24
92.02	22
92.04	19
92.06	21
92.08	12
92.1	14
92.12	21
92.14	15
92.16	17
92.18	26
92.2	20
92.22	15
92.24	21
92.26	19
92.28	18
92.3	15
92.32	18
92.34	15
92.36	15
92.38	13
92.4	21
92.42	12
92.44	18
92.46	11
92.48	14
92.5	15
92.52	21
92.54	19
92.56	22
92.58	22
92.6	21
92.62	21
92.64	16
92.66	14
92.68	12
92.7	23
92.72	17
92.74	21
92.76	17
92.78	14
92.8	22
92.82	17
92.84	21
92.86	22
92.88	23
92.9	18
92.92	16
92.94	22
92.96	11
92.98	18
93	16
93.02	19
93.04	19
93.06	25
93.08	17
93.1	11
93.12	14
93.14	22
93.16	19
93.18	16
93.2	23
93.22	20
93.24	22
93.26	19
93.28	34
93.3	22
93.32	23
93.34	16
93.36	16
93.38	20
93.4	17
93.42	14
93.44	19
93.46	17
93.48	20
93.5	13
93.52	14
93.54	22
93.56	20
93.58	23
93.6	13
93.62	24
93.64	24
93.66	13
93.68	15
93.7	15
93.72	17
93.74	19
93.76	20
93.78	27
93.8	17
93.82	19
93.84	20
93.86	19
93.88	17
93.9	22
93.92	16
93.94	19
93.96	26
93.98	17
94	21
94.02	18
94.04	22
94.06	26
94.08	17
94.1	16
94.12	15
94.14	21
94.16	26
94.18	12
94.2	18
94.22	26
94.24	27
94.26	23
94.28	19
94.3	13
94.32	26
94.34	19
94.36	24
94.38	22
94.4	28
94.42	17
94.44	31
94.46	21
94.48	32
94.5	28
94.52	32
94.54	32
94.56	23
94.58	28
94.6	22
94.62	34
94.64	19
94.66	32
94.68	33
94.7	39
94.72	46
94.74	48
94.76	42
94.78	48
94.8	58
94.82	57
94.84	71
94.86	91
94.88	102
94.9	129
94.92	163
94.94	221
94.96	307
94.98	462
95	582
95.02	687
95.04	626
95.06	554
95.08	380
95.1	300
95.12	197
95.14	154
95.16	175
95.18	106
95.2	127
95.22	110
95.24	142
95.26	157
95.28	209
95.3	240
95.32	345
95.34	369
95.36	313
95.38	333
95.4	210
95.42	143
95.44	108
95.46	103
95.48	85
95.5	70
95.52	61
95.54	45
95.56	42
95.58	41
95.6	37
95.62	40
95.64	31
95.66	33
95.68	30
95.7	32
95.72	29
95.74	29
95.76	20
95.78	22
95.8	33
95.82	28
95.84	34
95.86	24
95.88	30
95.9	21
95.92	16
95.94	27
95.96	24
95.98	26
96	23
96.02	19
96.04	21
96.06	18
96.08	21
96.1	13
96.12	19
96.14	18
96.16	24
96.18	17
96.2	19
96.22	30
96.24	17
96.26	17
96.28	21
96.3	17
96.32	25
96.34	14
96.36	15
96.38	27
96.4	20
96.42	14
96.44	22
96.46	20
96.48	22
96.5	18
96.52	18
96.54	17
96.56	14
96.58	14
96.6	17
96.62	15
96.64	16
96.66	19
96.68	26
96.7	21
96.72	18
96.74	18
96.76	31
96.78	12
96.8	23
96.82	21
96.84	21
96.86	17
96.88	18
96.9	20
96.92	13
96.94	20
96.96	18
96.98	20
97	16
97.02	16
97.04	13
97.06	19
97.08	19
97.1	17
97.12	20
97.14	13
97.16	15
97.18	21
97.2	22
97.22	11
97.24	18
97.26	16
97.28	11
97.3	15
97.32	16
97.34	14
97.36	13
97.38	22
97.4	18
97.42	15
97.44	15
97.46	22
97.48	14
97.5	12
97.52	16
97.54	22
97.56	11
97.58	18
97.6	21
97.62	14
97.64	21
97.66	15
97.68	14
97.7	23
97.72	24
97.74	17
97.76	19
97.78	18
97.8	20
97.82	18
97.84	16
97.86	19
97.88	21
97.9	18
97.92	12
97.94	13
97.96	10
97.98	21
98	17
98.02	10
98.04	16
98.06	22
98.08	13
98.1	21
98.12	17
98.14	16
98.16	8
98.18	22
98.2	22
98.22	18
98.24	18
98.26	14
98.28	18
98.3	17
98.32	11
98.34	21
98.36	17
98.38	10
98.4	15
98.42	20
98.44	16
98.46	14
98.48	19
98.5	14
98.52	17
98.54	13
98.56	20
98.58	13
98.6	12
98.62	23
98.64	12
98.66	15
98.68	11
98.7	17
98.72	14
98.74	15
98.76	13
98.78	15
98.8	14
98.82	11
98.84	18
98.86	16
98.88	18
98.9	20
98.92	24
98.94	17
98.96	19
98.98	13
99	21
99.02	15
99.04	12
99.06	9
99.08	14
99.1	14
99.12	13
99.14	13
99.16	17
99.18	18
99.2	22
99.22	14
99.24	25
99.26	16
99.28	12
99.3	13
99.32	17
99.34	20
99.36	14
99.38	17
99.4	9
99.42	20
99.44	14
99.46	16
99.48	18
99.5	20
99.52	19
99.54	7
99.56	17
99.58	18
99.6	18
99.62	21
99.64	25
99.66	22
99.68	16
99.7	18
99.72	18
99.74	14
99.76	18
99.78	16
99.8	16
99.82	15
99.84	19
99.86	12
99.88	21
99.9	22
99.92	8
99.94	15
99.96	17
99.98	24
100	16
