20	59
20.02	46
20.04	53
20.06	50
20.08	57
20.1	51
20.12	46
20.14	43
20.16	64
20.18	52
20.2	55
20.22	51
20.24	41
20.26	44
20.28	53
20.3	61
20.32	58
20.34	54
20.36	51
20.38	49
20.4	48
20.42	66
20.44	49
20.46	42
20.48	38
20.5	42
20.52	41
20.54	38
20.56	47
20.58	49
20.6	46
20.62	55
20.64	43
20.66	44
20.68	50
20.7	48
20.72	43
20.74	43
20.76	39
20.78	32
20.8	31
20.82	40
20.84	44
20.86	41
20.88	34
20.9	38
20.92	44
20.94	60
20.96	70
20.98	55
21	53
21.02	43
21.04	39
21.06	36
21.08	39
21.1	40
21.12	43
21.14	42
21.16	53
21.18	43
21.2	40
21.22	39
21.24	41
21.26	40
21.28	38
21.3	48
21.32	40
21.34	32
21.36	46
21.38	40
21.4	32
21.42	37
21.44	50
21.46	54
21.48	44
21.5	44
21.52	52
21.54	42
21.56	46
21.58	42
21.6	39
21.62	44
21.64	44
21.66	56
21.68	37
21.7	38
21.72	41
21.74	37
21.76	50
21.78	46
21.8	53
21.82	41
21.84	28
21.86	33
21.88	35
21.9	36
21.92	38
21.94	43
21.96	39
21.98	55
22	39
22.02	47
22.04	33
22.06	37
22.08	51
22.1	42
22.12	35
22.14	36
22.16	37
22.18	39
22.2	36
22.22	49
22.24	51
22.26	40
22.28	42
22.3	35
22.32	41
22.34	43
22.36	46
22.38	43
22.4	38
22.42	42
22.44	50
22.46	31
22.48	34
22.5	43
22.52	48
22.54	40
22.56	41
22.58	37
22.6	43
22.62	33
22.64	53
22.66	38
22.68	28
22.7	35
22.72	44
22.74	36
22.76	41
22.78	37
22.8	44
22.82	37
22.84	29
22.86	52
22.88	37
22.9	29
22.92	28
22.94	47
22.96	44
22.98	35
23	33
23.02	41
23.04	46
23.06	31
23.08	47
23.1	38
23.12	44
23.14	44
23.16	45
23.18	36
23.2	40
23.22	36
23.24	40
23.26	43
23.28	44
23.3	39
23.32	36
23.34	31
23.36	34
23.38	28
23.4	47
23.42	41
23.44	33
23.46	41
23.48	27
23.5	42
23.52	55
23.54	35
23.56	34
23.58	43
23.6	44
23.62	44
23.64	41
23.66	27
23.68	39
23.7	38
23.72	43
23.74	37
23.76	31
23.78	45
23.8	33
23.82	24
23.84	37
23.86	49
23.88	31
23.9	32
23.92	41
23.94	31
23.96	34
23.98	46
24	32
24.02	29
24.04	34
24.06	38
24.08	33
24.1	48
24.12	33
24.14	29
24.16	38
24.18	37
24.2	35
24.22	30
24.24	33
24.26	44
24.28	26
24.3	28
24.32	26
24.34	41
24.36	25
24.38	37
24.4	42
24.42	38
24.44	37
24.46	26
24.48	36
24.5	39
24.52	30
24.54	29
24.56	35
24.58	41
24.6	34
24.62	29
24.64	39
24.66	32
24.68	33
24.7	38
24.72	27
24.74	25
24.76	28
24.78	34
24.8	41
24.82	49
24.84	35
24.86	38
24.88	26
24.9	49
24.92	36
24.94	32
24.96	34
24.98	31
25	33
25.02	42
25.04	38
25.06	39
25.08	27
25.1	23
25.12	38
25.14	33
25.16	45
25.18	42
25.2	28
25.22	32
25.24	40
25.26	33
25.28	27
25.3	34
25.32	31
25.34	33
25.36	36
25.38	45
25.4	46
25.42	37
25.44	38
25.46	21
25.48	35
25.5	28
25.52	31
25.54	37
25.56	40
25.58	31
25.6	26
25.62	25
25.64	44
25.66	43
25.68	30
25.7	37
25.72	35
25.74	31
25.76	41
25.78	24
25.8	43
25.82	34
25.84	33
25.86	40
25.88	33
25.9	40
25.92	30
25.94	33
25.96	29
25.98	39
26	39
26.02	25
26.04	40
26.06	33
26.08	28
26.1	44
26.12	31
26.14	26
26.16	45
26.18	34
26.2	33
26.22	35
26.24	32
26.26	34
26.28	41
26.3	26
26.32	29
26.34	36
26.36	37
26.38	33
26.4	36
26.42	34
26.44	34
26.46	42
26.48	38
26.5	41
26.52	38
26.54	38
26.56	38
26.58	40
26.6	41
26.62	36
26.64	27
26.66	40
26.68	43
26.7	38
26.72	30
26.74	38
26.76	36
26.78	37
26.8	49
26.82	27
26.84	29
26.86	34
26.88	29
26.9	35
26.92	27
26.94	44
26.96	36
26.98	38
27	54
27.02	44
27.04	29
27.06	42
27.08	45
27.1	39
27.12	49
27.14	33
27.16	42
27.18	30
27.2	35
27.22	38
27.24	35
27.26	35
27.28	42
27.3	22
27.32	39
27.34	41
27.36	41
27.38	39
27.4	43
27.42	45
27.44	39
27.46	31
27.48	44
27.5	32
27.52	33
27.54	39
27.56	37
27.58	51
27.6	43
27.62	29
27.64	43
27.66	41
27.68	37
27.7	44
27.72	33
27.74	46
27.76	38
27.78	38
27.8	42
27.82	49
27.84	50
27.86	49
27.88	56
27.9	45
27.92	51
27.94	46
27.96	41
27.98	58
28	48
28.02	57
28.04	61
28.06	73
28.08	74
28.1	87
28.12	85
28.14	97
28.16	111
28.18	117
28.2	161
28.22	214
28.24	238
28.26	249
28.28	331
28.3	450
28.32	555
28.34	653
28.36	940
28.38	1088
28.4	1498
28.42	2242
28.44	3236
28.46	4576
28.48	4877
28.5	4241
28.52	3339
28.54	2695
28.56	2140
28.58	1675
28.6	814
28.62	401
28.64	295
28.66	201
28.68	192
28.7	151
28.72	134
28.74	98
28.76	88
28.78	92
28.8	63
28.82	76
28.84	49
28.86	78
28.88	77
28.9	55
28.92	46
28.94	59
28.96	53
28.98	48
29	57
29.02	51
29.04	59
29.06	45
29.08	51
29.1	47
29.12	52
29.14	47
29.16	35
29.18	49
29.2	49
29.22	54
29.24	38
29.26	47
29.28	35
29.3	34
29.32	45
29.34	42
29.36	29
29.38	34
29.4	45
29.42	49
29.44	40
29.46	42
29.48	41
29.5	42
29.52	35
29.54	36
29.56	42
29.58	53
29.6	35
29.62	35
29.64	41
29.66	33
29.68	34
29.7	41
29.72	39
29.74	28
29.76	25
29.78	29
29.8	42
29.82	35
29.84	45
29.86	31
29.88	41
29.9	42
29.92	38
29.94	33
29.96	36
29.98	32
30	41
30.02	31
30.04	33
30.06	44
30.08	32
30.1	40
30.12	24
30.14	36
30.16	30
30.18	37
30.2	34
30.22	32
30.24	28
30.26	34
30.28	39
30.3	41
30.32	36
30.34	31
30.36	40
30.38	36
30.4	27
30.42	38
30.44	36
30.46	35
30.48	36
30.5	33
30.52	39
30.54	45
30.56	31
30.58	37
30.6	39
30.62	44
30.64	33
30.66	39
30.68	42
30.7	32
30.72	32
30.74	31
30.76	38
30.78	26
30.8	35
30.82	33
30.84	37
30.86	38
30.88	44
30.9	42
30.92	30
30.94	28
30.96	42
30.98	32
31	30
31.02	41
31.04	28
31.06	43
31.08	37
31.1	37
31.12	30
31.14	36
31.16	35
31.18	32
31.2	38
31.22	38
31.24	34
31.26	33
31.28	25
31.3	41
31.32	30
31.34	33
31.36	27
31.38	36
31.4	22
31.42	37
31.44	33
31.46	34
31.48	29
31.5	35
31.52	42
31.54	42
31.56	33
31.58	26
31.6	29
31.62	24
31.64	25
31.66	35
31.68	37
31.7	43
31.72	33
31.74	34
31.76	39
31.78	39
31.8	37
31.82	23
31.84	36
31.86	26
31.88	39
31.9	36
31.92	24
31.94	34
31.96	38
31.98	44
32	37
32.02	41
32.04	42
32.06	33
32.08	30
32.1	47
32.12	30
32.14	33
32.16	34
32.18	22
32.2	34
32.22	41
32.24	26
32.26	34
32.28	31
32.3	38
32.32	29
32.34	39
32.36	30
32.38	25
32.4	28
32.42	31
32.44	36
32.46	38
32.48	33
32.5	21
32.52	40
32.54	26
32.56	32
32.58	29
32.6	32
32.62	21
32.64	38
32.66	25
32.68	22
32.7	39
32.72	40
32.74	28
32.76	20
32.78	34
32.8	36
32.82	31
32.84	36
32.86	30
32.88	29
32.9	37
32.92	22
32.94	19
32.96	29
32.98	36
33	28
33.02	38
33.04	25
33.06	28
33.08	45
33.1	26
33.12	29
33.14	22
33.16	26
33.18	22
33.2	29
33.22	25
33.24	25
33.26	21
33.28	31
33.3	25
33.32	30
33.34	27
33.36	31
33.38	30
33.4	25
33.42	27
33.44	23
33.46	37
33.48	41
33.5	28
33.52	40
33.54	29
33.56	32
33.58	22
33.6	28
33.62	25
33.64	30
33.66	32
33.68	37
33.7	32
33.72	31
33.74	31
33.76	39
33.78	28
33.8	50
33.82	21
33.84	27
33.86	36
33.88	27
33.9	31
33.92	36
33.94	28
33.96	25
33.98	27
34	32
34.02	26
34.04	24
34.06	28
34.08	27
34.1	32
34.12	30
34.14	26
34.16	27
34.18	30
34.2	31
34.22	22
34.24	26
34.26	23
34.28	30
34.3	21
34.32	31
34.34	41
34.36	32
34.38	24
34.4	29
34.42	32
34.44	27
34.46	29
34.48	29
34.5	22
34.52	35
34.54	34
34.56	14
34.58	30
34.6	24
34.62	24
34.64	28
34.66	26
34.68	33
34.7	32
34.72	19
34.74	26
34.76	27
34.78	24
34.8	25
34.82	23
34.84	20
34.86	25
34.88	26
34.9	26
34.92	34
34.94	27
34.96	25
34.98	34
35	28
35.02	23
35.04	24
35.06	22
35.08	30
35.1	26
35.12	30
35.14	24
35.16	17
35.18	27
35.2	35
35.22	25
35.24	23
35.26	26
35.28	23
35.3	20
35.32	24
35.34	22
35.36	24
35.38	21
35.4	29
35.42	32
35.44	29
35.46	32
35.48	23
35.5	28
35.52	13
35.54	33
35.56	33
35.58	24
35.6	25
35.62	25
35.64	28
35.66	22
35.68	30
35.7	29
35.72	26
35.74	22
35.76	18
35.78	24
35.8	25
35.82	21
35.84	23
35.86	25
35.88	23
35.9	20
35.92	30
35.94	26
35.96	24
35.98	26
36	26
36.02	19
36.04	29
36.06	27
36.08	22
36.1	17
36.12	23
36.14	27
36.16	24
36.18	28
36.2	17
36.22	22
36.24	24
36.26	23
36.28	23
36.3	25
36.32	26
36.34	30
36.36	16
36.38	29
36.4	25
36.42	27
36.44	16
36.46	18
36.48	33
36.5	23
36.52	24
36.54	16
36.56	28
36.58	34
36.6	27
36.62	29
36.64	23
36.66	20
36.68	33
36.7	19
36.72	16
36.74	22
36.76	27
36.78	24
36.8	22
36.82	21
36.84	21
36.86	25
36.88	18
36.9	22
36.92	19
36.94	29
36.96	20
36.98	22
37	23
37.02	26
37.04	21
37.06	26
37.08	20
37.1	19
37.12	20
37.14	24
37.16	23
37.18	23
37.2	27
37.22	21
37.24	21
37.26	21
37.28	18
37.3	21
37.32	18
37.34	23
37.36	21
37.38	22
37.4	28
37.42	28
37.44	28
37.46	33
37.48	23
37.5	24
37.52	30
37.54	31
37.56	21
37.58	29
37.6	25
37.62	30
37.64	27
37.66	22
37.68	19
37.7	26
37.72	32
37.74	24
37.76	22
37.78	24
37.8	39
37.82	25
37.84	30
37.86	21
37.88	21
37.9	20
37.92	20
37.94	13
37.96	28
37.98	24
38	22
38.02	22
38.04	19
38.06	26
38.08	16
38.1	22
38.12	20
38.14	22
38.16	25
38.18	21
38.2	20
38.22	21
38.24	23
38.26	26
38.28	21
38.3	31
38.32	18
38.34	16
38.36	25
38.38	20
38.4	23
38.42	13
38.44	24
38.46	18
38.48	18
38.5	21
38.52	27
38.54	21
38.56	23
38.58	17
38.6	28
38.62	18
38.64	18
38.66	18
38.68	20
38.7	20
38.72	29
38.74	14
38.76	16
38.78	23
38.8	20
38.82	21
38.84	23
38.86	23
38.88	26
38.9	17
38.92	18
38.94	13
38.96	19
38.98	22
39	23
39.02	24
39.04	25
39.06	19
39.08	18
39.1	17
39.12	21
39.14	27
39.16	26
39.18	24
39.2	22
39.22	20
39.24	16
39.26	23
39.28	25
39.3	35
39.32	27
39.34	31
39.36	23
39.38	27
39.4	23
39.42	28
39.44	17
39.46	18
39.48	23
39.5	24
39.52	16
39.54	16
39.56	21
39.58	19
39.6	13
39.62	24
39.64	12
39.66	26
39.68	23
39.7	26
39.72	23
39.74	20
39.76	31
39.78	35
39.8	22
39.82	19
39.84	29
39.86	26
39.88	21
39.9	24
39.92	26
39.94	17
39.96	23
39.98	18
40	18
40.02	27
40.04	20
40.06	20
40.08	23
40.1	17
40.12	18
40.14	18
40.16	15
40.18	25
40.2	19
40.22	23
40.24	22
40.26	24
40.28	13
40.3	27
40.32	26
40.34	14
40.36	19
40.38	20
40.4	22
40.42	20
40.44	25
40.46	26
40.48	23
40.5	19
40.52	20
40.54	31
40.56	22
40.58	16
40.6	16
40.62	29
40.64	15
40.66	21
40.68	25
40.7	20
40.72	27
40.74	21
40.76	20
40.78	24
40.8	16
40.82	32
40.84	27
40.86	27
40.88	23
40.9	20
40.92	27
40.94	17
40.96	25
40.98	15
41	19
41.02	17
41.04	18
41.06	22
41.08	17
41.1	25
41.12	31
41.14	21
41.16	22
41.18	28
41.2	22
41.22	24
41.24	31
41.26	23
41.28	25
41.3	27
41.32	19
41.34	17
41.36	27
41.38	27
41.4	24
41.42	20
41.44	18
41.46	20
41.48	28
41.5	18
41.52	17
41.54	14
41.56	20
41.58	41
41.6	18
41.62	24
41.64	22
41.66	21
41.68	22
41.7	16
41.72	26
41.74	16
41.76	24
41.78	22
41.8	23
41.82	22
41.84	20
41.86	22
41.88	25
41.9	25
41.92	22
41.94	19
41.96	26
41.98	25
42	21
42.02	18
42.04	18
42.06	18
42.08	22
42.1	23
42.12	21
42.14	18
42.16	21
42.18	24
42.2	31
42.22	24
42.24	16
42.26	24
42.28	33
42.3	22
42.32	31
42.34	27
42.36	20
42.38	19
42.4	29
42.42	35
42.44	18
42.46	30
42.48	24
42.5	17
42.52	28
42.54	24
42.56	17
42.58	28
42.6	20
42.62	20
42.64	24
42.66	21
42.68	29
42.7	21
42.72	18
42.74	22
42.76	26
42.78	32
42.8	17
42.82	23
42.84	27
42.86	18
42.88	28
42.9	28
42.92	31
42.94	21
42.96	34
42.98	27
43	20
43.02	15
43.04	17
43.06	23
43.08	15
43.1	24
43.12	20
43.14	25
43.16	39
43.18	19
43.2	25
43.22	15
43.24	23
43.26	24
43.28	29
43.3	17
43.32	23
43.34	28
43.36	26
43.38	25
43.4	23
43.42	31
43.44	18
43.46	23
43.48	20
43.5	20
43.52	20
43.54	26
43.56	21
43.58	25
43.6	20
43.62	26
43.64	26
43.66	19
43.68	24
43.7	12
43.72	25
43.74	17
43.76	15
43.78	18
43.8	23
43.82	24
43.84	14
43.86	25
43.88	18
43.9	19
43.92	21
43.94	28
43.96	22
43.98	23
44	17
44.02	19
44.04	30
44.06	28
44.08	13
44.1	17
44.12	20
44.14	20
44.16	25
44.18	20
44.2	20
44.22	25
44.24	20
44.26	21
44.28	20
44.3	28
44.32	26
44.34	27
44.36	19
44.38	12
44.4	24
44.42	15
44.44	23
44.46	22
44.48	12
44.5	19
44.52	19
44.54	31
44.56	24
44.58	35
44.6	25
44.62	18
44.64	20
44.66	21
44.68	29
44.7	32
44.72	19
44.74	23
44.76	22
44.78	28
44.8	22
44.82	22
44.84	23
44.86	25
44.88	23
44.9	24
44.92	29
44.94	16
44.96	20
44.98	30
45	20
45.02	20
45.04	23
45.06	25
45.08	26
45.1	14
45.12	29
45.14	25
45.16	22
45.18	24
45.2	20
45.22	24
45.24	19
45.26	19
45.28	24
45.3	19
45.32	23
45.34	11
45.36	18
45.38	18
45.4	22
45.42	16
45.44	17
45.46	16
45.48	25
45.5	15
45.52	13
45.54	20
45.56	30
45.58	23
45.6	17
45.62	17
45.64	19
45.66	14
45.68	22
45.7	13
45.72	17
45.74	22
45.76	23
45.78	17
45.8	19
45.82	20
45.84	22
45.86	17
45.88	28
45.9	26
45.92	25
45.94	14
45.96	18
45.98	24
46	16
46.02	28
46.04	21
46.06	26
46.08	24
46.1	23
46.12	19
46.14	26
46.16	27
46.18	22
46.2	12
46.22	21
46.24	23
46.26	22
46.28	29
46.3	21
46.32	20
46.34	25
46.36	20
46.38	22
46.4	28
46.42	27
46.44	23
46.46	26
46.48	32
46.5	26
46.52	33
46.54	27
46.56	20
46.58	26
46.6	30
46.62	15
46.64	26
46.66	26
46.68	20
46.7	23
46.72	36
46.74	49
46.76	34
46.78	30
46.8	26
46.82	32
46.84	37
46.86	42
46.88	32
46.9	39
46.92	35
46.94	41
46.96	50
46.98	48
47	50
47.02	66
47.04	78
47.06	82
47.08	108
47.1	133
47.12	169
47.14	167
47.16	205
47.18	226
47.2	328
47.22	430
47.24	576
47.26	818
47.28	1248
47.3	2027
47.32	2609
47.34	2637
47.36	2199
47.38	1521
47.4	1059
47.42	1148
47.44	1285
47.46	1423
47.48	1234
47.5	831
47.52	463
47.54	267
47.56	162
47.58	137
47.6	121
47.62	87
47.64	83
47.66	73
47.68	55
47.7	45
47.72	48
47.74	41
47.76	45
47.78	41
47.8	40
47.82	38
47.84	33
47.86	45
47.88	35
47.9	35
47.92	27
47.94	27
47.96	37
47.98	20
48	33
48.02	26
48.04	19
48.06	24
48.08	31
48.1	28
48.12	25
48.14	38
48.16	26
48.18	22
48.2	17
48.22	11
48.24	32
48.26	19
48.28	24
48.3	22
48.32	24
48.34	19
48.36	22
48.38	25
48.4	16
48.42	20
48.44	19
48.46	15
48.48	16
48.5	22
48.52	20
48.54	25
48.56	20
48.58	23
48.6	19
48.62	14
48.64	21
48.66	25
48.68	33
48.7	21
48.72	26
48.74	28
48.76	18
48.78	17
48.8	21
48.82	21
48.84	17
48.86	20
48.88	20
48.9	11
48.92	24
48.94	20
48.96	16
48.98	20
49	16
49.02	23
49.04	24
49.06	11
49.08	20
49.1	22
49.12	23
49.14	27
49.16	18
49.18	21
49.2	11
49.22	21
49.24	22
49.26	17
49.28	28
49.3	22
49.32	12
49.34	22
49.36	20
49.38	17
49.4	9
49.42	20
49.44	20
49.46	29
49.48	14
49.5	24
49.52	19
49.54	12
49.56	10
49.58	17
49.6	18
49.62	7
49.64	22
49.66	19
49.68	16
49.7	21
49.72	28
49.74	15
49.76	20
49.78	15
49.8	13
49.82	13
49.84	18
49.86	15
49.88	20
49.9	17
49.92	21
49.94	12
49.96	17
49.98	20
50	14
50.02	18
50.04	22
50.06	16
50.08	15
50.1	19
50.12	16
50.14	8
50.16	16
50.18	18
50.2	18
50.22	13
50.24	14
50.26	20
50.28	13
50.3	14
50.32	16
50.34	26
50.36	27
50.38	16
50.4	13
50.42	15
50.44	15
50.46	18
50.48	20
50.5	15
50.52	10
50.54	22
50.56	17
50.58	11
50.6	22
50.62	21
50.64	17
50.66	14
50.68	12
50.7	13
50.72	19
50.74	18
50.76	31
50.78	25
50.8	14
50.82	18
50.84	12
50.86	16
50.88	22
50.9	15
50.92	11
50.94	13
50.96	18
50.98	15
51	14
51.02	12
51.04	16
51.06	9
51.08	13
51.1	18
51.12	14
51.14	17
51.16	19
51.18	14
51.2	20
51.22	22
51.24	15
51.26	11
51.28	16
51.3	15
51.32	15
51.34	10
51.36	12
51.38	13
51.4	16
51.42	9
51.44	17
51.46	15
51.48	16
51.5	30
51.52	17
51.54	11
51.56	11
51.58	18
51.6	8
51.62	17
51.64	18
51.66	13
51.68	15
51.7	16
51.72	18
51.74	11
51.76	14
51.78	12
51.8	15
51.82	10
51.84	13
51.86	11
51.88	12
51.9	24
51.92	9
51.94	13
51.96	17
51.98	18
52	13
52.02	12
52.04	17
52.06	11
52.08	19
52.1	17
52.12	17
52.14	18
52.16	14
52.18	6
52.2	16
52.22	17
52.24	19
52.26	12
52.28	12
52.3	13
52.32	11
52.34	10
52.36	10
52.38	18
52.4	15
52.42	16
52.44	16
52.46	15
52.48	11
52.5	14
52.52	18
52.54	23
52.56	20
52.58	10
52.6	21
52.62	17
52.64	16
52.66	10
52.68	21
52.7	14
52.72	16
52.74	12
52.76	16
52.78	14
52.8	18
52.82	9
52.84	16
52.86	12
52.88	19
52.9	20
52.92	15
52.94	13
52.96	11
52.98	21
53	11
53.02	12
53.04	16
53.06	18
53.08	15
53.1	19
53.12	7
53.14	14
53.16	9
53.18	12
53.2	18
53.22	15
53.24	12
53.26	21
53.28	19
53.3	16
53.32	12
53.34	12
53.36	17
53.38	15
53.4	12
53.42	15
53.44	14
53.46	16
53.48	16
53.5	10
53.52	11
53.54	11
53.56	14
53.58	12
53.6	14
53.62	17
53.64	10
53.66	11
53.68	12
53.7	9
53.72	17
53.74	17
53.76	18
53.78	16
53.8	17
53.82	20
53.84	16
53.86	14
53.88	14
53.9	16
53.92	19
53.94	18
53.96	12
53.98	15
54	11
54.02	11
54.04	15
54.06	10
54.08	12
54.1	14
54.12	15
54.14	15
54.16	20
54.18	15
54.2	12
54.22	17
54.24	19
54.26	12
54.28	16
54.3	17
54.32	18
54.34	14
54.36	10
54.38	10
54.4	16
54.42	20
54.44	21
54.46	15
54.48	15
54.5	22
54.52	18
54.54	9
54.56	15
54.58	11
54.6	17
54.62	20
54.64	20
54.66	18
54.68	22
54.7	16
54.72	15
54.74	17
54.76	17
54.78	15
54.8	26
54.82	16
54.84	10
54.86	16
54.88	19
54.9	15
54.92	23
54.94	17
54.96	12
54.98	14
55	24
55.02	14
55.04	18
55.06	14
55.08	20
55.1	15
55.12	26
55.14	12
55.16	19
55.18	9
55.2	13
55.22	16
55.24	20
55.26	16
55.28	17
55.3	25
55.32	17
55.34	14
55.36	26
55.38	14
55.4	25
55.42	15
55.44	26
55.46	15
55.48	17
55.5	22
55.52	19
55.54	16
55.56	17
55.58	23
55.6	19
55.62	22
55.64	36
55.66	32
55.68	25
55.7	29
55.72	31
55.74	18
55.76	42
55.78	40
55.8	34
55.82	35
55.84	64
55.86	60
55.88	52
55.9	59
55.92	73
55.94	81
55.96	89
55.98	105
56	145
56.02	156
56.04	204
56.06	293
56.08	474
56.1	759
56.12	1143
56.14	1444
56.16	1383
56.18	1132
56.2	816
56.22	489
56.24	447
56.26	524
56.28	727
56.3	811
56.32	759
56.34	509
56.36	301
56.38	189
56.4	135
56.42	97
56.44	89
56.46	51
56.48	68
56.5	37
56.52	43
56.54	35
56.56	30
56.58	28
56.6	25
56.62	30
56.64	23
56.66	20
56.68	20
56.7	21
56.72	30
56.74	29
56.76	27
56.78	28
56.8	17
56.82	17
56.84	25
56.86	14
56.88	14
56.9	20
56.92	15
56.94	20
56.96	22
56.98	19
57	18
57.02	18
57.04	10
57.06	14
57.08	13
57.1	20
57.12	17
57.14	19
57.16	13
57.18	16
57.2	15
57.22	8
57.24	15
57.26	14
57.28	22
57.3	13
57.32	12
57.34	11
57.36	14
57.38	16
57.4	11
57.42	9
57.44	14
57.46	14
57.48	13
57.5	11
57.52	15
57.54	11
57.56	17
57.58	12
57.6	14
57.62	11
57.64	14
57.66	15
57.68	14
57.7	12
57.72	7
57.74	3
57.76	12
57.78	16
57.8	12
57.82	21
57.84	16
57.86	16
57.88	14
57.9	12
57.92	10
57.94	11
57.96	12
57.98	14
58	18
58.02	15
58.04	6
58.06	12
58.08	10
58.1	13
58.12	10
58.14	22
58.16	11
58.18	19
58.2	17
58.22	14
58.24	13
58.26	21
58.28	12
58.3	13
58.32	15
58.34	16
58.36	13
58.38	15
58.4	13
58.42	13
58.44	12
58.46	7
58.48	9
58.5	9
58.52	16
58.54	12
58.56	9
58.58	9
58.6	17
58.62	15
58.64	12
58.66	18
58.68	13
58.7	11
58.72	21
58.74	9
58.76	18
58.78	14
58.8	12
58.82	12
58.84	11
58.86	9
58.88	13
58.9	22
58.92	12
58.94	12
58.96	15
58.98	15
59	12
59.02	13
59.04	7
59.06	15
59.08	11
59.1	11
59.12	11
59.14	11
59.16	9
59.18	14
59.2	11
59.22	8
59.24	9
59.26	12
59.28	8
59.3	10
59.32	10
59.34	15
59.36	11
59.38	11
59.4	8
59.42	10
59.44	16
59.46	12
59.48	16
59.5	10
59.52	9
59.54	11
59.56	8
59.58	15
59.6	12
59.62	13
59.64	12
59.66	12
59.68	13
59.7	9
59.72	13
59.74	11
59.76	15
59.78	17
59.8	13
59.82	13
59.84	14
59.86	12
59.88	14
59.9	11
59.92	10
59.94	16
59.96	9
59.98	15
60	13
60.02	11
60.04	9
60.06	15
60.08	8
60.1	9
60.12	12
60.14	11
60.16	9
60.18	13
60.2	7
60.22	8
60.24	21
60.26	14
60.28	13
60.3	13
60.32	11
60.34	7
60.36	16
60.38	13
60.4	13
60.42	15
60.44	10
60.46	12
60.48	9
60.5	12
60.52	10
60.54	8
60.56	6
60.58	17
60.6	16
60.62	7
60.64	9
60.66	6
60.68	15
60.7	7
60.72	12
60.74	9
60.76	11
60.78	14
60.8	8
60.82	9
60.84	7
60.86	7
60.88	10
60.9	12
60.92	12
60.94	19
60.96	7
60.98	18
61	8
61.02	14
61.04	12
61.06	8
61.08	5
61.1	11
61.12	10
61.14	14
61.16	12
61.18	9
61.2	12
61.22	8
61.24	7
61.26	8
61.28	8
61.3	12
61.32	10
61.34	12
61.36	13
61.38	12
61.4	12
61.42	10
61.44	13
61.46	10
61.48	7
61.5	13
61.52	15
61.54	6
61.56	10
61.58	9
61.6	8
61.62	10
61.64	4
61.66	11
61.68	8
61.7	7
61.72	13
61.74	11
61.76	14
61.78	16
61.8	8
61.82	7
61.84	14
61.86	13
61.88	13
61.9	11
61.92	12
61.94	7
61.96	9
61.98	19
62	4
62.02	12
62.04	15
62.06	13
62.08	13
62.1	14
62.12	12
62.14	7
62.16	11
62.18	13
62.2	9
62.22	7
62.24	7
62.26	13
62.28	13
62.3	13
62.32	17
62.34	8
62.36	11
62.38	11
62.4	11
62.42	7
62.44	15
62.46	14
62.48	13
62.5	9
62.52	9
62.54	13
62.56	8
62.58	7
62.6	10
62.62	10
62.64	12
62.66	3
62.68	10
62.7	11
62.72	7
62.74	9
62.76	8
62.78	10
62.8	11
62.82	10
62.84	7
62.86	9
62.88	10
62.9	7
62.92	6
62.94	7
62.96	8
62.98	16
63	10
63.02	5
63.04	10
63.06	11
63.08	7
63.1	14
63.12	5
63.14	12
63.16	10
63.18	19
63.2	10
63.22	12
63.24	10
63.26	17
63.28	5
63.3	8
63.32	12
63.34	6
63.36	7
63.38	5
63.4	10
63.42	6
63.44	10
63.46	7
63.48	13
63.5	4
63.52	12
63.54	11
63.56	14
63.58	8
63.6	7
63.62	11
63.64	4
63.66	14
63.68	15
63.7	10
63.72	18
63.74	6
63.76	5
63.78	13
63.8	9
63.82	7
63.84	15
63.86	10
63.88	2
63.9	14
63.92	12
63.94	12
63.96	9
63.98	18
64	5
64.02	14
64.04	6
64.06	11
64.08	10
64.1	16
64.12	10
64.14	7
64.16	15
64.18	9
64.2	8
64.22	5
64.24	12
64.26	6
64.28	7
64.3	15
64.32	10
64.34	13
64.36	7
64.38	6
64.4	11
64.42	7
64.44	8
64.46	5
64.48	11
64.5	12
64.52	6
64.54	13
64.56	13
64.58	9
64.6	14
64.62	6
64.64	9
64.66	9
64.68	14
64.7	7
64.72	11
64.74	12
64.76	7
64.78	13
64.8	9
64.82	19
64.84	10
64.86	9
64.88	12
64.9	4
64.92	10
64.94	15
64.96	15
64.98	14
65	8
65.02	8
65.04	14
65.06	12
65.08	12
65.1	15
65.12	7
65.14	6
65.16	15
65.18	11
65.2	12
65.22	13
65.24	13
65.26	13
65.28	6
65.3	8
65.32	6
65.34	8
65.36	8
65.38	9
65.4	17
65.42	8
65.44	14
65.46	13
65.48	11
65.5	6
65.52	8
65.54	10
65.56	10
65.58	9
65.6	5
65.62	10
65.64	11
65.66	6
65.68	11
65.7	8
65.72	14
65.74	9
65.76	6
65.78	8
65.8	5
65.82	12
65.84	10
65.86	9
65.88	8
65.9	8
65.92	11
65.94	14
65.96	8
65.98	15
66	11
66.02	3
66.04	11
66.06	8
66.08	14
66.1	11
66.12	3
66.14	11
66.16	7
66.18	11
66.2	15
66.22	9
66.24	9
66.26	6
66.28	18
66.3	13
66.32	3
66.34	14
66.36	14
66.38	3
66.4	13
66.42	8
66.44	11
66.46	4
66.48	13
66.5	12
66.52	7
66.54	14
66.56	10
66.58	9
66.6	9
66.62	7
66.64	10
66.66	16
66.68	9
66.7	19
66.72	14
66.74	13
66.76	5
66.78	11
66.8	9
66.82	13
66.84	11
66.86	10
66.88	12
66.9	7
66.92	12
66.94	8
66.96	10
66.98	6
67	7
67.02	15
67.04	6
67.06	8
67.08	10
67.1	13
67.12	12
67.14	14
67.16	9
67.18	10
67.2	7
67.22	12
67.24	15
67.26	11
67.28	12
67.3	9
67.32	14
67.34	9
67.36	10
67.38	6
67.4	5
67.42	7
67.44	8
67.46	12
67.48	7
67.5	8
67.52	9
67.54	10
67.56	11
67.58	8
67.6	13
67.62	12
67.64	12
67.66	16
67.68	16
67.7	12
67.72	9
67.74	7
67.76	8
67.78	10
67.8	11
67.82	11
67.84	7
67.86	10
67.88	10
67.9	11
67.92	9
67.94	9
67.96	8
67.98	12
68	16
68.02	9
68.04	10
68.06	8
68.08	11
68.1	12
68.12	11
68.14	10
68.16	12
68.18	5
68.2	13
68.22	12
68.24	13
68.26	12
68.28	11
68.3	10
68.32	14
68.34	11
68.36	11
68.38	8
68.4	10
68.42	6
68.44	12
68.46	20
68.48	12
68.5	10
68.52	15
68.54	5
68.56	15
68.58	10
68.6	13
68.62	7
68.64	11
68.66	22
68.68	17
68.7	15
68.72	6
68.74	19
68.76	13
68.78	22
68.8	14
68.82	19
68.84	19
68.86	23
68.88	14
68.9	30
68.92	24
68.94	27
68.96	31
68.98	31
69	32
69.02	44
69.04	52
69.06	69
69.08	90
69.1	148
69.12	228
69.14	282
69.16	323
69.18	328
69.2	235
69.22	174
69.24	112
69.26	103
69.28	85
69.3	129
69.32	101
69.34	168
69.36	159
69.38	172
69.4	126
69.42	78
69.44	65
69.46	37
69.48	30
69.5	30
69.52	22
69.54	19
69.56	17
69.58	24
69.6	19
69.62	19
69.64	14
69.66	10
69.68	15
69.7	15
69.72	7
69.74	16
69.76	11
69.78	12
69.8	17
69.82	13
69.84	12
69.86	16
69.88	11
69.9	10
69.92	14
69.94	9
69.96	14
69.98	14
70	11
70.02	16
70.04	8
70.06	9
70.08	10
70.1	8
70.12	13
70.14	13
70.16	9
70.18	19
70.2	7
70.22	9
70.24	11
70.26	10
70.28	11
70.3	12
70.32	13
70.34	11
70.36	6
70.38	9
70.4	12
70.42	11
70.44	12
70.46	9
70.48	10
70.5	13
70.52	8
70.54	6
70.56	5
70.58	10
70.6	9
70.62	11
70.64	7
70.66	10
70.68	6
70.7	7
70.72	12
70.74	13
70.76	10
70.78	11
70.8	10
70.82	7
70.84	12
70.86	5
70.88	12
70.9	12
70.92	9
70.94	8
70.96	10
70.98	7
71	10
71.02	12
71.04	12
71.06	5
71.08	14
71.1	17
71.12	17
71.14	12
71.16	7
71.18	7
71.2	11
71.22	10
71.24	6
71.26	5
71.28	10
71.3	9
71.32	13
71.34	10
71.36	9
71.38	9
71.4	2
71.42	8
71.44	12
71.46	14
71.48	12
71.5	8
71.52	8
71.54	7
71.56	8
71.58	4
71.6	7
71.62	15
71.64	12
71.66	6
71.68	10
71.7	10
71.72	6
71.74	6
71.76	10
71.78	14
71.8	7
71.82	12
71.84	10
71.86	11
71.88	7
71.9	7
71.92	3
71.94	10
71.96	13
71.98	9
72	10
72.02	13
72.04	15
72.06	12
72.08	9
72.1	6
72.12	6
72.14	8
72.16	11
72.18	7
72.2	4
72.22	8
72.24	6
72.26	10
72.28	10
72.3	12
72.32	6
72.34	11
72.36	6
72.38	9
72.4	6
72.42	8
72.44	10
72.46	5
72.48	7
72.5	5
72.52	10
72.54	5
72.56	11
72.58	12
72.6	9
72.62	7
72.64	7
72.66	6
72.68	11
72.7	10
72.72	7
72.74	10
72.76	12
72.78	12
72.8	9
72.82	9
72.84	15
72.86	10
72.88	15
72.9	10
72.92	11
72.94	8
72.96	4
72.98	8
73	13
73.02	7
73.04	9
73.06	12
73.08	16
73.1	6
73.12	9
73.14	11
73.16	3
73.18	8
73.2	12
73.22	2
73.24	11
73.26	9
73.28	11
73.3	13
73.32	8
73.34	5
73.36	11
73.38	7
73.4	11
73.42	12
73.44	6
73.46	10
73.48	3
73.5	8
73.52	15
73.54	13
73.56	5
73.58	7
73.6	10
73.62	9
73.64	12
73.66	13
73.68	7
73.7	11
73.72	7
73.74	12
73.76	8
73.78	5
73.8	5
73.82	8
73.84	6
73.86	9
73.88	8
73.9	7
73.92	10
73.94	10
73.96	13
73.98	13
74	10
74.02	10
74.04	9
74.06	7
74.08	5
74.1	7
74.12	11
74.14	4
74.16	9
74.18	18
74.2	10
74.22	13
74.24	11
74.26	8
74.28	8
74.3	11
74.32	9
74.34	3
74.36	14
74.38	11
74.4	16
74.42	8
74.44	6
74.46	9
74.48	9
74.5	7
74.52	9
74.54	11
74.56	9
74.58	6
74.6	7
74.62	10
74.64	14
74.66	11
74.68	5
74.7	15
74.72	8
74.74	16
74.76	14
74.78	9
74.8	5
74.82	14
74.84	12
74.86	9
74.88	7
74.9	11
74.92	15
74.94	14
74.96	9
74.98	11
75	12
75.02	8
75.04	15
75.06	12
75.08	11
75.1	8
75.12	8
75.14	11
75.16	12
75.18	5
75.2	19
75.22	11
75.24	8
75.26	7
75.28	7
75.3	14
75.32	6
75.34	12
75.36	10
75.38	9
75.4	10
75.42	13
75.44	11
75.46	7
75.48	11
75.5	14
75.52	13
75.54	3
75.56	12
75.58	16
75.6	10
75.62	10
75.64	10
75.66	11
75.68	15
75.7	11
75.72	5
75.74	15
75.76	6
75.78	11
75.8	10
75.82	12
75.84	13
75.86	13
75.88	20
75.9	16
75.92	20
75.94	11
75.96	14
75.98	15
76	27
76.02	16
76.04	11
76.06	22
76.08	15
76.1	20
76.12	22
76.14	26
76.16	25
76.18	15
76.2	46
76.22	40
76.24	51
76.26	56
76.28	67
76.3	91
76.32	142
76.34	189
76.36	320
76.38	419
76.4	566
76.42	511
76.44	407
76.46	255
76.48	194
76.5	144
76.52	90
76.54	121
76.56	140
76.58	166
76.6	203
76.62	238
76.64	283
76.66	236
76.68	159
76.7	114
76.72	98
76.74	53
76.76	40
76.78	37
76.8	38
76.82	34
76.84	27
76.86	22
76.88	23
76.9	19
76.92	15
76.94	16
76.96	25
76.98	16
77	13
77.02	16
77.04	14
77.06	19
77.08	10
77.1	6
77.12	8
77.14	13
77.16	18
77.18	13
77.2	14
77.22	9
77.24	15
77.26	17
77.28	6
77.3	16
77.32	10
77.34	13
77.36	6
77.38	11
77.4	9
77.42	18
77.44	16
77.46	12
77.48	9
77.5	8
77.52	12
77.54	16
77.56	10
77.58	8
77.6	17
77.62	15
77.64	9
77.66	11
77.68	11
77.7	5
77.72	5
77.74	12
77.76	9
77.78	7
77.8	17
77.82	7
77.84	12
77.86	9
77.88	6
77.9	11
77.92	11
77.94	10
77.96	9
77.98	10
78	8
78.02	14
78.04	8
78.06	17
78.08	6
78.1	18
78.12	12
78.14	13
78.16	10
78.18	9
78.2	17
78.22	16
78.24	12
78.26	10
78.28	13
78.3	12
78.32	9
78.34	7
78.36	4
78.38	13
78.4	14
78.42	12
78.44	8
78.46	6
78.48	10
78.5	8
78.52	9
78.54	9
78.56	7
78.58	11
78.6	5
78.62	8
78.64	20
78.66	11
78.68	8
78.7	14
78.72	11
78.74	7
78.76	6
78.78	12
78.8	12
78.82	11
78.84	8
78.86	10
78.88	16
78.9	11
78.92	10
78.94	7
78.96	7
78.98	5
79	8
79.02	10
79.04	13
79.06	9
79.08	12
79.1	11
79.12	6
79.14	9
79.16	9
79.18	13
79.2	7
79.22	5
79.24	9
79.26	11
79.28	8
79.3	4
79.32	10
79.34	15
79.36	16
79.38	7
79.4	13
79.42	7
79.44	5
79.46	10
79.48	11
79.5	13
79.52	7
79.54	7
79.56	9
79.58	11
79.6	13
79.62	4
79.64	9
79.66	12
79.68	10
79.7	18
79.72	9
79.74	6
79.76	9
79.78	9
79.8	14
79.82	12
79.84	4
79.86	13
79.88	15
79.9	11
79.92	7
79.94	10
79.96	7
79.98	5
80	12
80.02	6
80.04	6
80.06	7
80.08	11
80.1	12
80.12	16
80.14	6
80.16	10
80.18	5
80.2	13
80.22	10
80.24	14
80.26	8
80.28	9
80.3	11
80.32	12
80.34	8
80.36	9
80.38	10
80.4	15
80.42	13
80.44	11
80.46	4
80.48	11
80.5	6
80.52	7
80.54	15
80.56	6
80.58	9
80.6	8
80.62	6
80.64	8
80.66	10
80.68	14
80.7	10
80.72	8
80.74	14
80.76	15
80.78	8
80.8	11
80.82	5
80.84	8
80.86	11
80.88	9
80.9	12
80.92	5
80.94	9
80.96	11
80.98	9
81	9
81.02	5
81.04	8
81.06	5
81.08	6
81.1	11
81.12	8
81.14	10
81.16	8
81.18	9
81.2	8
81.22	12
81.24	13
81.26	7
81.28	6
81.3	8
81.32	8
81.34	13
81.36	7
81.38	8
81.4	14
81.42	10
81.44	6
81.46	8
81.48	6
81.5	5
81.52	7
81.54	4
81.56	9
81.58	12
81.6	9
81.62	14
81.64	8
81.66	10
81.68	10
81.7	8
81.72	8
81.74	8
81.76	15
81.78	8
81.8	11
81.82	9
81.84	12
81.86	13
81.88	12
81.9	6
81.92	11
81.94	9
81.96	7
81.98	13
82	10
82.02	13
82.04	9
82.06	12
82.08	13
82.1	8
82.12	11
82.14	13
82.16	14
82.18	5
82.2	10
82.22	8
82.24	11
82.26	9
82.28	10
82.3	10
82.32	10
82.34	12
82.36	6
82.38	10
82.4	8
82.42	10
82.44	7
82.46	12
82.48	14
82.5	9
82.52	4
82.54	10
82.56	14
82.58	5
82.6	9
82.62	3
82.64	8
82.66	7
82.68	8
82.7	7
82.72	6
82.74	7
82.76	4
82.78	13
82.8	7
82.82	9
82.84	8
82.86	10
82.88	12
82.9	9
82.92	11
82.94	5
82.96	11
82.98	7
83	13
83.02	8
83.04	8
83.06	10
83.08	6
83.1	8
83.12	14
83.14	7
83.16	7
83.18	12
83.2	13
83.22	7
83.24	9
83.26	6
83.28	10
83.3	6
83.32	12
83.34	8
83.36	6
83.38	9
83.4	19
83.42	7
83.44	7
83.46	8
83.48	8
83.5	4
83.52	8
83.54	12
83.56	7
83.58	14
83.6	7
83.62	11
83.64	9
83.66	8
83.68	13
83.7	6
83.72	7
83.74	8
83.76	13
83.78	14
83.8	3
83.82	7
83.84	10
83.86	6
83.88	11
83.9	7
83.92	8
83.94	4
83.96	17
83.98	10
84	11
84.02	11
84.04	10
84.06	9
84.08	13
84.1	10
84.12	10
84.14	8
84.16	12
84.18	10
84.2	10
84.22	8
84.24	8
84.26	16
84.28	8
84.3	9
84.32	12
84.34	12
84.36	9
84.38	6
84.4	5
84.42	8
84.44	11
84.46	7
84.48	5
84.5	11
84.52	4
84.54	7
84.56	11
84.58	8
84.6	11
84.62	10
84.64	9
84.66	3
84.68	7
84.7	11
84.72	10
84.74	11
84.76	7
84.78	5
84.8	13
84.82	8
84.84	8
84.86	8
84.88	14
84.9	8
84.92	6
84.94	15
84.96	7
84.98	5
85	11
85.02	12
85.04	8
85.06	15
85.08	10
85.1	12
85.12	9
85.14	10
85.16	5
85.18	5
85.2	10
85.22	5
85.24	6
85.26	6
85.28	7
85.3	6
85.32	3
85.34	15
85.36	8
85.38	6
85.4	10
85.42	6
85.44	17
85.46	7
85.48	16
85.5	14
85.52	14
85.54	11
85.56	9
85.58	8
85.6	10
85.62	7
85.64	9
85.66	11
85.68	8
85.7	9
85.72	9
85.74	6
85.76	9
85.78	10
85.8	13
85.82	11
85.84	12
85.86	9
85.88	13
85.9	17
85.92	12
85.94	5
85.96	7
85.98	8
86	7
86.02	10
86.04	8
86.06	10
86.08	13
86.1	11
86.12	12
86.14	8
86.16	10
86.18	18
86.2	9
86.22	4
86.24	11
86.26	13
86.28	10
86.3	4
86.32	13
86.34	11
86.36	10
86.38	16
86.4	13
86.42	14
86.44	9
86.46	15
86.48	12
86.5	12
86.52	12
86.54	12
86.56	14
86.58	5
86.6	14
86.62	11
86.64	11
86.66	9
86.68	9
86.7	13
86.72	6
86.74	7
86.76	15
86.78	12
86.8	19
86.82	6
86.84	12
86.86	13
86.88	10
86.9	11
86.92	15
86.94	12
86.96	8
86.98	16
87	15
87.02	13
87.04	13
87.06	13
87.08	17
87.1	8
87.12	11
87.14	11
87.16	19
87.18	14
87.2	7
87.22	14
87.24	18
87.26	16
87.28	12
87.3	13
87.32	10
87.34	15
87.36	13
87.38	19
87.4	18
87.42	19
87.44	19
87.46	19
87.48	20
87.5	11
87.52	18
87.54	12
87.56	22
87.58	22
87.6	23
87.62	21
87.64	28
87.66	31
87.68	27
87.7	26
87.72	34
87.74	23
87.76	28
87.78	22
87.8	29
87.82	47
87.84	48
87.86	60
87.88	77
87.9	82
87.92	69
87.94	118
87.96	154
87.98	222
88	316
88.02	490
88.04	617
88.06	741
88.08	663
88.1	531
88.12	381
88.14	267
88.16	173
88.18	128
88.2	135
88.22	122
88.24	146
88.26	165
88.28	192
88.3	252
88.32	337
88.34	408
88.36	339
88.38	264
88.4	178
88.42	150
88.44	84
88.46	62
88.48	57
88.5	40
88.52	48
88.54	37
88.56	45
88.58	41
88.6	30
88.62	36
88.64	19
88.66	26
88.68	18
88.7	15
88.72	28
88.74	16
88.76	17
88.78	25
88.8	18
88.82	16
88.84	13
88.86	14
88.88	11
88.9	16
88.92	13
88.94	16
88.96	17
88.98	18
89	15
89.02	11
89.04	13
89.06	14
89.08	18
89.1	19
89.12	11
89.14	16
89.16	7
89.18	12
89.2	7
89.22	12
89.24	12
89.26	10
89.28	12
89.3	10
89.32	19
89.34	17
89.36	22
89.38	7
89.4	11
89.42	17
89.44	14
89.46	11
89.48	14
89.5	10
89.52	10
89.54	11
89.56	16
89.58	9
89.6	11
89.62	12
89.64	7
89.66	9
89.68	11
89.7	14
89.72	15
89.74	15
89.76	12
89.78	15
89.8	7
89.82	12
89.84	14
89.86	19
89.88	12
89.9	7
89.92	13
89.94	12
89.96	5
89.98	8
90	11
90.02	14
90.04	17
90.06	13
90.08	9
90.1	15
90.12	6
90.14	6
90.16	15
90.18	9
90.2	12
90.22	16
90.24	12
90.26	6
90.28	9
90.3	13
90.32	10
90.34	11
90.36	10
90.38	18
90.4	6
90.42	12
90.44	9
90.46	9
90.48	18
90.5	5
90.52	10
90.54	10
90.56	12
90.58	8
90.6	9
90.62	7
90.64	4
90.66	8
90.68	12
90.7	11
90.72	11
90.74	10
90.76	13
90.78	9
90.8	5
90.82	8
90.84	3
90.86	10
90.88	9
90.9	4
90.92	10
90.94	13
90.96	5
90.98	10
91	16
91.02	5
91.04	11
91.06	2
91.08	8
91.1	9
91.12	7
91.14	12
91.16	6
91.18	8
91.2	12
91.22	10
91.24	9
91.26	8
91.28	9
91.3	13
91.32	7
91.34	10
91.36	12
91.38	7
91.4	14
91.42	10
91.44	13
91.46	6
91.48	4
91.5	12
91.52	9
91.54	14
91.56	10
91.58	8
91.6	5
91.62	9
91.64	11
91.66	6
91.68	11
91.7	3
91.72	8
91.74	5
91.76	6
91.78	15
91.8	13
91.82	9
91.84	8
91.86	11
91.88	4
91.9	11
91.92	9
91.94	8
91.96	6
91.98	8
92	14
92.02	15
92.04	7
92.06	9
92.08	8
92.1	7
92.12	8
92.14	6
92.16	10
92.18	14
92.2	11
92.22	10
92.24	6
92.26	13
92.28	9
92.3	7
92.32	4
92.34	12
92.36	14
92.38	13
92.4	9
92.42	13
92.44	7
92.46	11
92.48	12
92.5	6
92.52	9
92.54	15
92.56	14
92.58	10
92.6	11
92.62	8
92.64	11
92.66	9
92.68	8
92.7	10
92.72	9
92.74	10
92.76	6
92.78	7
92.8	7
92.82	11
92.84	15
92.86	6
92.88	13
92.9	9
92.92	7
92.94	10
92.96	7
92.98	4
93	11
93.02	12
93.04	7
93.06	9
93.08	11
93.1	14
93.12	10
93.14	11
93.16	8
93.18	7
93.2	9
93.22	8
93.24	11
93.26	9
93.28	10
93.3	6
93.32	12
93.34	13
93.36	7
93.38	8
93.4	10
93.42	9
93.44	10
93.46	8
93.48	12
93.5	11
93.52	9
93.54	10
93.56	13
93.58	7
93.6	9
93.62	7
93.64	8
93.66	8
93.68	11
93.7	10
93.72	8
93.74	5
93.76	9
93.78	8
93.8	10
93.82	12
93.84	9
93.86	10
93.88	10
93.9	9
93.92	11
93.94	13
93.96	15
93.98	2
94	12
94.02	6
94.04	11
94.06	14
94.08	8
94.1	12
94.12	18
94.14	15
94.16	5
94.18	7
94.2	13
94.22	10
94.24	8
94.26	14
94.28	9
94.3	12
94.32	8
94.34	11
94.36	17
94.38	18
94.4	10
94.42	8
94.44	23
94.46	17
94.48	11
94.5	20
94.52	7
94.54	12
94.56	19
94.58	16
94.6	20
94.62	18
94.64	17
94.66	15
94.68	26
94.7	21
94.72	14
94.74	27
94.76	32
94.78	40
94.8	37
94.82	55
94.84	66
94.86	66
94.88	97
94.9	132
94.92	178
94.94	254
94.96	363
94.98	480
95	408
95.02	309
95.04	229
95.06	155
95.08	119
95.1	81
95.12	86
95.14	66
95.16	56
95.18	65
95.2	76
95.22	91
95.24	114
95.26	166
95.28	192
95.3	234
95.32	204
95.34	151
95.36	121
95.38	68
95.4	80
95.42	47
95.44	43
95.46	33
95.48	22
95.5	21
95.52	28
95.54	17
95.56	20
95.58	27
95.6	27
95.62	10
95.64	18
95.66	18
95.68	11
95.7	13
95.72	6
95.74	12
95.76	21
95.78	18
95.8	10
95.82	17
95.84	10
95.86	8
95.88	4
95.9	5
95.92	13
95.94	11
95.96	7
95.98	10
96	9
96.02	12
96.04	10
96.06	9
96.08	9
96.1	7
96.12	5
96.14	13
96.16	13
96.18	11
96.2	9
96.22	8
96.24	13
96.26	9
96.28	8
96.3	8
96.32	8
96.34	13
96.36	10
96.38	7
96.4	12
96.42	9
96.44	13
96.46	8
96.48	9
96.5	10
96.52	11
96.54	6
96.56	5
96.58	10
96.6	11
96.62	13
96.64	6
96.66	12
96.68	15
96.7	9
96.72	10
96.74	11
96.76	10
96.78	5
96.8	5
96.82	8
96.84	5
96.86	7
96.88	8
96.9	15
96.92	10
96.94	3
96.96	9
96.98	12
97	13
97.02	10
97.04	5
97.06	5
97.08	11
97.1	10
97.12	4
97.14	9
97.16	8
97.18	6
97.2	13
97.22	10
97.24	10
97.26	12
97.28	10
97.3	11
97.32	4
97.34	9
97.36	7
97.38	10
97.4	8
97.42	8
97.44	10
97.46	11
97.48	6
97.5	7
97.52	6
97.54	11
97.56	6
97.58	8
97.6	10
97.62	7
97.64	10
97.66	4
97.68	5
97.7	15
97.72	13
97.74	4
97.76	10
97.78	14
97.8	8
97.82	12
97.84	10
97.86	3
97.88	7
97.9	14
97.92	3
97.94	8
97.96	6
97.98	7
98	7
98.02	7
98.04	11
98.06	8
98.08	9
98.1	6
98.12	10
98.14	7
98.16	7
98.18	5
98.2	8
98.22	5
98.24	6
98.26	8
98.28	11
98.3	9
98.32	8
98.34	8
98.36	3
98.38	7
98.4	7
98.42	5
98.44	7
98.46	3
98.48	9
98.5	11
98.52	9
98.54	8
98.56	4
98.58	4
98.6	5
98.62	7
98.64	5
98.66	10
98.68	7
98.7	10
98.72	10
98.74	7
98.76	5
98.78	3
98.8	7
98.82	6
98.84	8
98.86	9
98.88	8
98.9	12
98.92	10
98.94	4
98.96	6
98.98	8
99	4
99.02	7
99.04	11
99.06	7
99.08	7
99.1	6
99.12	9
99.14	10
99.16	12
99.18	12
99.2	6
99.22	8
99.24	5
99.26	8
99.28	13
99.3	9
99.32	7
99.34	9
99.36	7
99.38	5
99.4	5
99.42	6
99.44	6
99.46	7
99.48	2
99.5	9
99.52	9
99.54	8
99.56	5
99.58	9
99.6	6
99.62	8
99.64	2
99.66	4
99.68	6
99.7	3
99.72	6
99.74	5
99.76	8
99.78	6
99.8	6
99.82	8
99.84	5
99.86	8
99.88	3
99.9	11
99.92	7
99.94	7
99.96	6
99.98	3
100	1
