5	126
5.02	110
5.04	140
5.06	120
5.08	132
5.1	114
5.12	107
5.14	133
5.16	127
5.18	111
5.2	106
5.22	124
5.24	132
5.26	128
5.28	118
5.3	108
5.32	102
5.34	110
5.36	110
5.38	113
5.4	108
5.42	124
5.44	109
5.46	111
5.48	112
5.5	95
5.52	108
5.54	118
5.56	107
5.58	122
5.6	93
5.62	101
5.64	103
5.66	113
5.68	114
5.7	114
5.72	102
5.74	105
5.76	87
5.78	105
5.8	116
5.82	99
5.84	108
5.86	106
5.88	93
5.9	85
5.92	90
5.94	103
5.96	103
5.98	85
6	92
6.02	100
6.04	91
6.06	95
6.08	94
6.1	119
6.12	82
6.14	113
6.16	109
6.18	71
6.2	91
6.22	93
6.24	90
6.26	108
6.28	74
6.3	101
6.32	87
6.34	72
6.36	86
6.38	96
6.4	96
6.42	78
6.44	93
6.46	77
6.48	90
6.5	78
6.52	99
6.54	91
6.56	75
6.58	91
6.6	77
6.62	83
6.64	94
6.66	93
6.68	98
6.7	99
6.72	91
6.74	96
6.76	96
6.78	93
6.8	82
6.82	81
6.84	91
6.86	84
6.88	85
6.9	75
6.92	79
6.94	98
6.96	71
6.98	82
7	99
7.02	87
7.04	71
7.06	87
7.08	72
7.1	86
7.12	93
7.14	97
7.16	104
7.18	88
7.2	81
7.22	76
7.24	75
7.26	61
7.28	70
7.3	85
7.32	83
7.34	92
7.36	99
7.38	73
7.4	69
7.42	95
7.44	84
7.46	73
7.48	80
7.5	69
7.52	81
7.54	84
7.56	75
7.58	80
7.6	87
7.62	86
7.64	83
7.66	82
7.68	80
7.7	94
7.72	80
7.74	74
7.76	85
7.78	64
7.8	89
7.82	88
7.84	94
7.86	68
7.88	75
7.9	71
7.92	101
7.94	80
7.96	79
7.98	77
8	80
8.02	89
8.04	93
8.06	79
8.08	70
8.1	90
8.12	92
8.14	84
8.16	89
8.18	88
8.2	84
8.22	85
8.24	74
8.26	81
8.28	54
8.3	73
8.32	83
8.34	89
8.36	74
8.38	73
8.4	97
8.42	87
8.44	93
8.46	83
8.48	78
8.5	76
8.52	90
8.54	64
8.56	74
8.58	80
8.6	76
8.62	73
8.64	56
8.66	69
8.68	74
8.7	64
8.72	64
8.74	74
8.76	84
8.78	72
8.8	91
8.82	80
8.84	80
8.86	63
8.88	80
8.9	74
8.92	70
8.94	73
8.96	77
8.98	87
9	83
9.02	87
9.04	81
9.06	72
9.08	73
9.1	86
9.12	82
9.14	67
9.16	90
9.18	82
9.2	75
9.22	72
9.24	76
9.26	83
9.28	75
9.3	76
9.32	85
9.34	78
9.36	81
9.38	98
9.4	90
9.42	76
9.44	69
9.46	74
9.48	100
9.5	74
9.52	80
9.54	84
9.56	95
9.58	82
9.6	67
9.62	85
9.64	83
9.66	86
9.68	89
9.7	83
9.72	79
9.74	82
9.76	93
9.78	76
9.8	69
9.82	94
9.84	93
9.86	77
9.88	83
9.9	72
9.92	73
9.94	100
9.96	85
9.98	67
10	105
10.02	82
10.04	85
10.06	100
10.08	83
10.1	85
10.12	87
10.14	72
10.16	77
10.18	104
10.2	80
10.22	85
10.24	73
10.26	76
10.28	82
10.3	87
10.32	92
10.34	88
10.36	101
10.38	89
10.4	102
10.42	84
10.44	93
10.46	85
10.48	81
10.5	91
10.52	78
10.54	104
10.56	73
10.58	87
10.6	98
10.62	80
10.64	78
10.66	83
10.68	83
10.7	95
10.72	95
10.74	104
10.76	96
10.78	105
10.8	78
10.82	85
10.84	98
10.86	90
10.88	108
10.9	93
10.92	93
10.94	105
10.96	106
10.98	95
11	112
11.02	104
11.04	96
11.06	98
11.08	109
11.1	93
11.12	89
11.14	97
11.16	115
11.18	108
11.2	99
11.22	103
11.24	100
11.26	127
11.28	95
11.3	115
11.32	114
11.34	95
11.36	109
11.38	101
11.4	98
11.42	124
11.44	101
11.46	104
11.48	110
11.5	122
11.52	110
11.54	96
11.56	115
11.58	118
11.6	105
11.62	106
11.64	100
11.66	92
11.68	119
11.7	112
11.72	92
11.74	96
11.76	116
11.78	102
11.8	116
11.82	136
11.84	128
11.86	102
11.88	110
11.9	115
11.92	107
11.94	119
11.96	105
11.98	107
12	105
12.02	111
12.04	99
12.06	100
12.08	124
12.1	104
12.12	97
12.14	98
12.16	98
12.18	112
12.2	88
12.22	97
12.24	112
12.26	108
12.28	124
12.3	111
12.32	103
12.34	90
12.36	107
12.38	115
12.4	100
12.42	100
12.44	115
12.46	99
12.48	99
12.5	116
12.52	101
12.54	101
12.56	100
12.58	96
12.6	109
12.62	102
12.64	106
12.66	98
12.68	114
12.7	108
12.72	128
12.74	123
12.76	128
12.78	125
12.8	90
12.82	117
12.84	99
12.86	94
12.88	95
12.9	113
12.92	99
12.94	95
12.96	112
12.98	94
13	104
13.02	96
13.04	103
13.06	123
13.08	116
13.1	106
13.12	99
13.14	91
13.16	120
13.18	100
13.2	106
13.22	101
13.24	111
13.26	113
13.28	91
13.3	121
13.32	119
13.34	115
13.36	104
13.38	104
13.4	100
13.42	134
13.44	101
13.46	97
13.48	107
13.5	109
13.52	128
13.54	128
13.56	93
13.58	90
13.6	127
13.62	96
13.64	95
13.66	100
13.68	108
13.7	107
13.72	114
13.74	103
13.76	93
13.78	98
13.8	109
13.82	107
13.84	108
13.86	111
13.88	104
13.9	107
13.92	84
13.94	110
13.96	103
13.98	108
14	107
14.02	109
14.04	105
14.06	109
14.08	108
14.1	122
14.12	106
14.14	106
14.16	126
14.18	97
14.2	102
14.22	122
14.24	81
14.26	85
14.28	108
14.3	84
14.32	98
14.34	110
14.36	108
14.38	106
14.4	97
14.42	102
14.44	91
14.46	94
14.48	101
14.5	87
14.52	104
14.54	99
14.56	108
14.58	100
14.6	98
14.62	103
14.64	89
14.66	107
14.68	90
14.7	91
14.72	99
14.74	119
14.76	103
14.78	104
14.8	100
14.82	93
14.84	104
14.86	93
14.88	83
14.9	90
14.92	96
14.94	91
14.96	84
14.98	83
15	95
15.02	93
15.04	98
15.06	103
15.08	101
15.1	100
15.12	82
15.14	86
15.16	102
15.18	93
15.2	89
15.22	88
15.24	102
15.26	87
15.28	104
15.3	94
15.32	92
15.34	98
15.36	89
15.38	106
15.4	75
15.42	93
15.44	81
15.46	81
15.48	108
15.5	97
15.52	86
15.54	93
15.56	82
15.58	95
15.6	87
15.62	78
15.64	83
15.66	93
15.68	88
15.7	77
15.72	90
15.74	87
15.76	80
15.78	85
15.8	88
15.82	102
15.84	88
15.86	76
15.88	94
15.9	76
15.92	70
15.94	88
15.96	74
15.98	89
16	84
16.02	92
16.04	100
16.06	83
16.08	89
16.1	69
16.12	92
16.14	79
16.16	92
16.18	75
16.2	72
16.22	86
16.24	86
16.26	86
16.28	66
16.3	77
16.32	78
16.34	81
16.36	76
16.38	64
16.4	79
16.42	79
16.44	78
16.46	70
16.48	84
16.5	77
16.52	63
16.54	86
16.56	88
16.58	83
16.6	74
16.62	66
16.64	81
16.66	76
16.68	91
16.7	74
16.72	75
16.74	81
16.76	70
16.78	77
16.8	68
16.82	83
16.84	72
16.86	76
16.88	66
16.9	91
16.92	70
16.94	66
16.96	65
16.98	66
17	69
17.02	68
17.04	93
17.06	75
17.08	69
17.1	74
17.12	81
17.14	83
17.16	73
17.18	67
17.2	75
17.22	65
17.24	81
17.26	82
17.28	77
17.3	82
17.32	76
17.34	64
17.36	84
17.38	66
17.4	66
17.42	63
17.44	57
17.46	83
17.48	69
17.5	77
17.52	61
17.54	57
17.56	70
17.58	63
17.6	76
17.62	69
17.64	69
17.66	75
17.68	63
17.7	71
17.72	74
17.74	76
17.76	62
17.78	70
17.8	70
17.82	64
17.84	66
17.86	74
17.88	58
17.9	66
17.92	71
17.94	70
17.96	59
17.98	71
18	54
18.02	52
18.04	61
18.06	74
18.08	69
18.1	59
18.12	59
18.14	50
18.16	75
18.18	66
18.2	73
18.22	61
18.24	52
18.26	50
18.28	79
18.3	65
18.32	63
18.34	66
18.36	75
18.38	56
18.4	59
18.42	60
18.44	56
18.46	53
18.48	63
18.5	71
18.52	50
18.54	66
18.56	52
18.58	64
18.6	61
18.62	57
18.64	55
18.66	71
18.68	61
18.7	50
18.72	52
18.74	50
18.76	64
18.78	58
18.8	66
18.82	64
18.84	67
18.86	57
18.88	63
18.9	59
18.92	52
18.94	50
18.96	71
18.98	85
19	62
19.02	61
19.04	57
19.06	35
19.08	52
19.1	63
19.12	73
19.14	58
19.16	43
19.18	56
19.2	47
19.22	59
19.24	59
19.26	63
19.28	52
19.3	47
19.32	61
19.34	61
19.36	60
19.38	60
19.4	49
19.42	51
19.44	49
19.46	53
19.48	53
19.5	60
19.52	54
19.54	50
19.56	64
19.58	57
19.6	53
19.62	44
19.64	73
19.66	53
19.68	53
19.7	50
19.72	49
19.74	71
19.76	57
19.78	52
19.8	59
19.82	48
19.84	53
19.86	54
19.88	37
19.9	58
19.92	51
19.94	68
19.96	68
19.98	69
20	48
20.02	61
20.04	49
20.06	73
20.08	61
20.1	62
20.12	47
20.14	61
20.16	48
20.18	35
20.2	56
20.22	54
20.24	40
20.26	34
20.28	49
20.3	55
20.32	57
20.34	52
20.36	24
20.38	48
20.4	58
20.42	57
20.44	44
20.46	49
20.48	45
20.5	46
20.52	35
20.54	49
20.56	32
20.58	56
20.6	47
20.62	55
20.64	51
20.66	44
20.68	56
20.7	51
20.72	47
20.74	56
20.76	49
20.78	51
20.8	44
20.82	47
20.84	39
20.86	51
20.88	46
20.9	47
20.92	46
20.94	42
20.96	50
20.98	49
21	38
21.02	49
21.04	47
21.06	39
21.08	39
21.1	38
21.12	52
21.14	42
21.16	52
21.18	42
21.2	47
21.22	44
21.24	45
21.26	43
21.28	39
21.3	50
21.32	42
21.34	34
21.36	48
21.38	36
21.4	55
21.42	47
21.44	31
21.46	38
21.48	52
21.5	43
21.52	48
21.54	37
21.56	41
21.58	45
21.6	50
21.62	48
21.64	28
21.66	44
21.68	42
21.7	35
21.72	38
21.74	50
21.76	49
21.78	39
21.8	37
21.82	41
21.84	49
21.86	40
21.88	42
21.9	33
21.92	42
21.94	45
21.96	28
21.98	37
22	44
22.02	39
22.04	45
22.06	43
22.08	37
22.1	50
22.12	48
22.14	41
22.16	45
22.18	33
22.2	30
22.22	41
22.24	42
22.26	32
22.28	36
22.3	38
22.32	31
22.34	40
22.36	23
22.38	41
22.4	38
22.42	30
22.44	39
22.46	43
22.48	44
22.5	47
22.52	46
22.54	38
22.56	50
22.58	46
22.6	37
22.62	37
22.64	36
22.66	39
22.68	47
22.7	39
22.72	42
22.74	34
22.76	47
22.78	37
22.8	43
22.82	29
22.84	28
22.86	33
22.88	33
22.9	44
22.92	38
22.94	42
22.96	39
22.98	43
23	40
23.02	27
23.04	31
23.06	41
23.08	35
23.1	32
23.12	34
23.14	39
23.16	36
23.18	42
23.2	41
23.22	50
23.24	31
23.26	28
23.28	34
23.3	32
23.32	48
23.34	34
23.36	31
23.38	31
23.4	37
23.42	42
23.44	46
23.46	41
23.48	39
23.5	38
23.52	33
23.54	29
23.56	44
23.58	33
23.6	36
23.62	34
23.64	31
23.66	41
23.68	39
23.7	41
23.72	40
23.74	48
23.76	40
23.78	39
23.8	38
23.82	34
23.84	30
23.86	43
23.88	40
23.9	32
23.92	44
23.94	42
23.96	38
23.98	51
24	37
24.02	33
24.04	32
24.06	49
24.08	40
24.1	35
24.12	38
24.14	40
24.16	44
24.18	31
24.2	49
24.22	45
24.24	43
24.26	38
24.28	50
24.3	27
24.32	28
24.34	45
24.36	30
24.38	40
24.4	32
24.42	38
24.44	33
24.46	35
24.48	35
24.5	44
24.52	43
24.54	44
24.56	43
24.58	32
24.6	31
24.62	36
24.64	39
24.66	44
24.68	32
24.7	42
24.72	45
24.74	41
24.76	29
24.78	35
24.8	28
24.82	24
24.84	20
24.86	35
24.88	30
24.9	34
24.92	45
24.94	39
24.96	31
24.98	36
25	40
25.02	31
25.04	35
25.06	41
25.08	31
25.1	48
25.12	41
25.14	36
25.16	32
25.18	38
25.2	30
25.22	32
25.24	29
25.26	47
25.28	39
25.3	33
25.32	28
25.34	37
25.36	44
25.38	42
25.4	53
25.42	29
25.44	21
25.46	36
25.48	33
25.5	31
25.52	35
25.54	31
25.56	45
25.58	30
25.6	35
25.62	44
25.64	34
25.66	43
25.68	34
25.7	36
25.72	32
25.74	37
25.76	28
25.78	43
25.8	30
25.82	38
25.84	31
25.86	30
25.88	44
25.9	31
25.92	39
25.94	32
25.96	41
25.98	39
26	38
26.02	42
26.04	38
26.06	36
26.08	38
26.1	34
26.12	36
26.14	33
26.16	33
26.18	43
26.2	33
26.22	43
26.24	38
26.26	25
26.28	36
26.3	39
26.32	34
26.34	44
26.36	30
26.38	21
26.4	44
26.42	26
26.44	38
26.46	36
26.48	47
26.5	35
26.52	35
26.54	36
26.56	35
26.58	36
26.6	29
26.62	43
26.64	34
26.66	36
26.68	40
26.7	27
26.72	33
26.74	37
26.76	34
26.78	38
26.8	39
26.82	26
26.84	41
26.86	50
26.88	42
26.9	30
26.92	28
26.94	34
26.96	42
26.98	32
27	37
27.02	32
27.04	31
27.06	46
27.08	29
27.1	41
27.12	38
27.14	26
27.16	27
27.18	40
27.2	33
27.22	31
27.24	38
27.26	34
27.28	29
27.3	35
27.32	41
27.34	34
27.36	46
27.38	28
27.4	50
27.42	39
27.44	36
27.46	41
27.48	48
27.5	38
27.52	37
27.54	41
27.56	36
27.58	38
27.6	37
27.62	40
27.64	39
27.66	55
27.68	45
27.7	32
27.72	41
27.74	28
27.76	41
27.78	51
27.8	41
27.82	48
27.84	48
27.86	41
27.88	51
27.9	56
27.92	50
27.94	61
27.96	61
27.98	48
28	54
28.02	51
28.04	61
28.06	42
28.08	60
28.1	54
28.12	64
28.14	71
28.16	83
28.18	73
28.2	93
28.22	105
28.24	135
28.26	159
28.28	206
28.3	229
28.32	257
28.34	340
28.36	449
28.38	617
28.4	693
28.42	956
28.44	1402
28.46	1886
28.48	2560
28.5	3209
28.52	3880
28.54	4069
28.56	3539
28.58	2932
28.6	2266
28.62	1733
28.64	1250
28.66	705
28.68	374
28.7	248
28.72	201
28.74	168
28.76	123
28.78	118
28.8	98
28.82	107
28.84	81
28.86	82
28.88	95
28.9	71
28.92	65
28.94	62
28.96	65
28.98	51
29	44
29.02	57
29.04	46
29.06	36
29.08	61
29.1	51
29.12	38
29.14	46
29.16	40
29.18	31
29.2	57
29.22	47
29.24	51
29.26	40
29.28	43
29.3	42
29.32	30
29.34	47
29.36	42
29.38	30
29.4	38
29.42	32
29.44	40
29.46	42
29.48	48
29.5	33
29.52	38
29.54	52
29.56	45
29.58	30
29.6	41
29.62	37
29.64	40
29.66	34
29.68	47
29.7	47
29.72	44
29.74	39
29.76	34
29.78	33
29.8	34
29.82	48
29.84	38
29.86	29
29.88	33
29.9	38
29.92	40
29.94	35
29.96	48
29.98	35
30	39
30.02	36
30.04	30
30.06	33
30.08	39
30.1	36
30.12	39
30.14	37
30.16	32
30.18	33
30.2	34
30.22	39
30.24	30
30.26	37
30.28	36
30.3	35
30.32	43
30.34	35
30.36	37
30.38	34
30.4	31
30.42	31
30.44	44
30.46	32
30.48	33
30.5	40
30.52	33
30.54	34
30.56	45
30.58	38
30.6	29
30.62	37
30.64	39
30.66	43
30.68	31
30.7	40
30.72	32
30.74	33
30.76	28
30.78	30
30.8	33
30.82	38
30.84	34
30.86	33
30.88	33
30.9	33
30.92	25
30.94	38
30.96	48
30.98	38
31	35
31.02	34
31.04	27
31.06	22
31.08	41
31.1	34
31.12	53
31.14	45
31.16	38
31.18	30
31.2	36
31.22	33
31.24	36
31.26	36
31.28	35
31.3	35
31.32	39
31.34	40
31.36	33
31.38	40
31.4	27
31.42	36
31.44	28
31.46	32
31.48	27
31.5	33
31.52	24
31.54	34
31.56	39
31.58	36
31.6	42
31.62	39
31.64	37
31.66	42
31.68	38
31.7	32
31.72	38
31.74	27
31.76	35
31.78	36
31.8	38
31.82	30
31.84	35
31.86	31
31.88	36
31.9	38
31.92	29
31.94	45
31.96	29
31.98	38
32	32
32.02	35
32.04	34
32.06	29
32.08	27
32.1	27
32.12	40
32.14	43
32.16	35
32.18	35
32.2	44
32.22	34
32.24	32
32.26	21
32.28	30
32.3	35
32.32	40
32.34	31
32.36	36
32.38	32
32.4	23
32.42	34
32.44	32
32.46	34
32.48	30
32.5	35
32.52	36
32.54	30
32.56	36
32.58	21
32.6	32
32.62	36
32.64	31
32.66	39
32.68	31
32.7	33
32.72	32
32.74	37
32.76	24
32.78	33
32.8	36
32.82	40
32.84	28
32.86	31
32.88	39
32.9	33
32.92	33
32.94	30
32.96	37
32.98	28
33	29
33.02	26
33.04	37
33.06	32
33.08	33
33.1	44
33.12	24
33.14	37
33.16	38
33.18	28
33.2	32
33.22	30
33.24	32
33.26	26
33.28	37
33.3	28
33.32	25
33.34	35
33.36	22
33.38	20
33.4	26
33.42	36
33.44	28
33.46	30
33.48	23
33.5	34
33.52	30
33.54	35
33.56	34
33.58	31
33.6	26
33.62	26
33.64	28
33.66	20
33.68	26
33.7	35
33.72	29
33.74	39
33.76	40
33.78	26
33.8	30
33.82	29
33.84	26
33.86	27
33.88	33
33.9	21
33.92	33
33.94	28
33.96	25
33.98	31
34	21
34.02	23
34.04	43
34.06	22
34.08	19
34.1	30
34.12	29
34.14	30
34.16	28
34.18	34
34.2	32
34.22	23
34.24	34
34.26	28
34.28	28
34.3	31
34.32	32
34.34	27
34.36	31
34.38	32
34.4	26
34.42	23
34.44	27
34.46	15
34.48	29
34.5	34
34.52	29
34.54	30
34.56	14
34.58	20
34.6	23
34.62	36
34.64	33
34.66	28
34.68	38
34.7	26
34.72	24
34.74	37
34.76	31
34.78	31
34.8	23
34.82	25
34.84	25
34.86	32
34.88	19
34.9	37
34.92	28
34.94	26
34.96	23
34.98	26
35	27
35.02	32
35.04	35
35.06	29
35.08	17
35.1	39
35.12	42
35.14	28
35.16	22
35.18	26
35.2	27
35.22	21
35.24	27
35.26	25
35.28	28
35.3	23
35.32	21
35.34	35
35.36	18
35.38	28
35.4	30
35.42	39
35.44	19
35.46	29
35.48	32
35.5	29
35.52	29
35.54	24
35.56	25
35.58	37
35.6	25
35.62	27
35.64	40
35.66	25
35.68	37
35.7	36
35.72	41
35.74	27
35.76	11
35.78	27
35.8	33
35.82	19
35.84	28
35.86	25
35.88	25
35.9	37
35.92	24
35.94	37
35.96	29
35.98	25
36	37
36.02	27
36.04	27
36.06	28
36.08	23
36.1	22
36.12	31
36.14	20
36.16	23
36.18	26
36.2	19
36.22	20
36.24	21
36.26	26
36.28	20
36.3	24
36.32	26
36.34	30
36.36	36
36.38	25
36.4	20
36.42	25
36.44	24
36.46	19
36.48	19
36.5	23
36.52	25
36.54	25
36.56	27
36.58	26
36.6	21
36.62	23
36.64	23
36.66	20
36.68	21
36.7	26
36.72	29
36.74	23
36.76	21
36.78	19
36.8	25
36.82	17
36.84	14
36.86	29
36.88	32
36.9	17
36.92	14
36.94	29
36.96	22
36.98	26
37	25
37.02	35
37.04	14
37.06	25
37.08	27
37.1	26
37.12	26
37.14	15
37.16	21
37.18	19
37.2	21
37.22	25
37.24	21
37.26	17
37.28	23
37.3	22
37.32	34
37.34	25
37.36	34
37.38	28
37.4	31
37.42	27
37.44	28
37.46	22
37.48	24
37.5	41
37.52	24
37.54	34
37.56	27
37.58	36
37.6	33
37.62	19
37.64	30
37.66	23
37.68	27
37.7	26
37.72	29
37.74	26
37.76	22
37.78	23
37.8	31
37.82	23
37.84	24
37.86	21
37.88	26
37.9	20
37.92	17
37.94	20
37.96	28
37.98	27
38	27
38.02	25
38.04	23
38.06	28
38.08	25
38.1	20
38.12	25
38.14	32
38.16	25
38.18	23
38.2	24
38.22	23
38.24	24
38.26	23
38.28	23
38.3	18
38.32	22
38.34	23
38.36	19
38.38	22
38.4	17
38.42	19
38.44	24
38.46	28
38.48	19
38.5	19
38.52	30
38.54	28
38.56	22
38.58	20
38.6	36
38.62	15
38.64	22
38.66	26
38.68	26
38.7	26
38.72	21
38.74	20
38.76	37
38.78	20
38.8	18
38.82	33
38.84	35
38.86	16
38.88	17
38.9	23
38.92	24
38.94	17
38.96	20
38.98	18
39	25
39.02	22
39.04	22
39.06	26
39.08	24
39.1	22
39.12	21
39.14	31
39.16	21
39.18	24
39.2	17
39.22	23
39.24	16
39.26	28
39.28	23
39.3	22
39.32	14
39.34	21
39.36	19
39.38	20
39.4	19
39.42	28
39.44	25
39.46	19
39.48	37
39.5	19
39.52	22
39.54	30
39.56	19
39.58	18
39.6	18
39.62	12
39.64	30
39.66	22
39.68	22
39.7	22
39.72	26
39.74	29
39.76	24
39.78	21
39.8	24
39.82	16
39.84	21
39.86	21
39.88	18
39.9	32
39.92	24
39.94	16
39.96	22
39.98	23
40	20
40.02	25
40.04	27
40.06	17
40.08	26
40.1	23
40.12	26
40.14	21
40.16	23
40.18	19
40.2	26
40.22	25
40.24	19
40.26	23
40.28	20
40.3	31
40.32	29
40.34	24
40.36	18
40.38	31
40.4	21
40.42	23
40.44	26
40.46	21
40.48	19
40.5	28
40.52	27
40.54	18
40.56	24
40.58	22
40.6	27
40.62	24
40.64	20
40.66	18
40.68	19
40.7	19
40.72	22
40.74	16
40.76	29
40.78	23
40.8	34
40.82	32
40.84	13
40.86	19
40.88	34
40.9	22
40.92	33
40.94	34
40.96	19
40.98	16
41	25
41.02	26
41.04	24
41.06	18
41.08	18
41.1	25
41.12	27
41.14	23
41.16	19
41.18	28
41.2	27
41.22	20
41.24	17
41.26	21
41.28	36
41.3	20
41.32	23
41.34	20
41.36	13
41.38	26
41.4	21
41.42	23
41.44	20
41.46	17
41.48	27
41.5	15
41.52	20
41.54	24
41.56	20
41.58	23
41.6	34
41.62	20
41.64	27
41.66	18
41.68	20
41.7	15
41.72	26
41.74	18
41.76	23
41.78	36
41.8	29
41.82	26
41.84	26
41.86	22
41.88	35
41.9	19
41.92	18
41.94	26
41.96	20
41.98	22
42	16
42.02	33
42.04	15
42.06	21
42.08	25
42.1	31
42.12	33
42.14	26
42.16	25
42.18	25
42.2	31
42.22	19
42.24	24
42.26	26
42.28	27
42.3	17
42.32	20
42.34	36
42.36	33
42.38	24
42.4	28
42.42	25
42.44	17
42.46	21
42.48	21
42.5	12
42.52	25
42.54	30
42.56	23
42.58	29
42.6	15
42.62	24
42.64	25
42.66	14
42.68	20
42.7	23
42.72	22
42.74	14
42.76	13
42.78	25
42.8	20
42.82	23
42.84	28
42.86	23
42.88	31
42.9	24
42.92	28
42.94	24
42.96	24
42.98	19
43	24
43.02	11
43.04	30
43.06	22
43.08	26
43.1	24
43.12	25
43.14	22
43.16	29
43.18	22
43.2	10
43.22	32
43.24	15
43.26	18
43.28	30
43.3	20
43.32	19
43.34	21
43.36	19
43.38	24
43.4	24
43.42	27
43.44	27
43.46	28
43.48	17
43.5	24
43.52	26
43.54	30
43.56	22
43.58	26
43.6	19
43.62	16
43.64	29
43.66	19
43.68	15
43.7	24
43.72	19
43.74	21
43.76	18
43.78	24
43.8	31
43.82	23
43.84	20
43.86	26
43.88	21
43.9	15
43.92	21
43.94	20
43.96	20
43.98	16
44	13
44.02	17
44.04	23
44.06	24
44.08	30
44.1	17
44.12	14
44.14	18
44.16	19
44.18	21
44.2	15
44.22	23
44.24	25
44.26	25
44.28	25
44.3	16
44.32	20
44.34	32
44.36	22
44.38	18
44.4	20
44.42	21
44.44	26
44.46	18
44.48	22
44.5	26
44.52	29
44.54	21
44.56	22
44.58	23
44.6	20
44.62	23
44.64	24
44.66	21
44.68	19
44.7	27
44.72	19
44.74	25
44.76	25
44.78	19
44.8	27
44.82	25
44.84	27
44.86	16
44.88	22
44.9	21
44.92	22
44.94	24
44.96	34
44.98	23
45	23
45.02	21
45.04	26
45.06	23
45.08	22
45.1	19
45.12	25
45.14	16
45.16	15
45.18	26
45.2	24
45.22	22
45.24	19
45.26	20
45.28	18
45.3	22
45.32	20
45.34	25
45.36	14
45.38	24
45.4	21
45.42	22
45.44	21
45.46	28
45.48	21
45.5	17
45.52	15
45.54	23
45.56	22
45.58	29
45.6	18
45.62	16
45.64	21
45.66	15
45.68	18
45.7	26
45.72	20
45.74	19
45.76	29
45.78	21
45.8	23
45.82	31
45.84	15
45.86	25
45.88	20
45.9	21
45.92	24
45.94	26
45.96	25
45.98	26
46	16
46.02	21
46.04	27
46.06	27
46.08	27
46.1	23
46.12	31
46.14	29
46.16	23
46.18	17
46.2	23
46.22	20
46.24	27
46.26	25
46.28	21
46.3	21
46.32	21
46.34	22
46.36	17
46.38	29
46.4	28
46.42	23
46.44	20
46.46	25
46.48	22
46.5	33
46.52	33
46.54	17
46.56	23
46.58	29
46.6	22
46.62	20
46.64	26
46.66	29
46.68	30
46.7	34
46.72	27
46.74	33
46.76	24
46.78	35
46.8	32
46.82	32
46.84	24
46.86	31
46.88	32
46.9	37
46.92	37
46.94	37
46.96	41
46.98	49
47	36
47.02	41
47.04	59
47.06	53
47.08	77
47.1	71
47.12	100
47.14	98
47.16	119
47.18	140
47.2	157
47.22	171
47.24	276
47.26	345
47.28	528
47.3	732
47.32	1052
47.34	1583
47.36	2206
47.38	2518
47.4	2389
47.42	1780
47.44	1291
47.46	1129
47.48	1240
47.5	1329
47.52	1301
47.54	1018
47.56	581
47.58	342
47.6	220
47.62	138
47.64	127
47.66	91
47.68	75
47.7	71
47.72	66
47.74	68
47.76	63
47.78	55
47.8	45
47.82	40
47.84	50
47.86	47
47.88	37
47.9	50
47.92	42
47.94	32
47.96	32
47.98	32
48	34
48.02	26
48.04	20
48.06	31
48.08	27
48.1	21
48.12	21
48.14	22
48.16	27
48.18	27
48.2	23
48.22	29
48.24	25
48.26	29
48.28	20
48.3	29
48.32	31
48.34	20
48.36	21
48.38	21
48.4	24
48.42	18
48.44	29
48.46	31
48.48	28
48.5	21
48.52	19
48.54	16
48.56	24
48.58	30
48.6	27
48.62	22
48.64	21
48.66	24
48.68	22
48.7	26
48.72	28
48.74	20
48.76	28
48.78	25
48.8	15
48.82	23
48.84	23
48.86	21
48.88	18
48.9	24
48.92	28
48.94	15
48.96	12
48.98	20
49	22
49.02	19
49.04	20
49.06	20
49.08	19
49.1	18
49.12	13
49.14	22
49.16	28
49.18	16
49.2	13
49.22	23
49.24	21
49.26	17
49.28	18
49.3	26
49.32	14
49.34	19
49.36	15
49.38	16
49.4	17
49.42	15
49.44	16
49.46	12
49.48	18
49.5	17
49.52	26
49.54	16
49.56	11
49.58	14
49.6	18
49.62	24
49.64	21
49.66	15
49.68	14
49.7	8
49.72	26
49.74	26
49.76	22
49.78	19
49.8	22
49.82	13
49.84	18
49.86	17
49.88	12
49.9	17
49.92	16
49.94	18
49.96	12
49.98	17
50	14
50.02	19
50.04	16
50.06	19
50.08	14
50.1	13
50.12	22
50.14	19
50.16	15
50.18	21
50.2	16
50.22	16
50.24	15
50.26	18
50.28	7
50.3	13
50.32	11
50.34	17
50.36	14
50.38	15
50.4	16
50.42	22
50.44	17
50.46	19
50.48	17
50.5	14
50.52	22
50.54	15
50.56	16
50.58	16
50.6	12
50.62	14
50.64	24
50.66	18
50.68	17
50.7	18
50.72	11
50.74	20
50.76	20
50.78	17
50.8	17
50.82	19
50.84	11
50.86	16
50.88	17
50.9	10
50.92	21
50.94	22
50.96	18
50.98	20
51	20
51.02	14
51.04	20
51.06	15
51.08	14
51.1	16
51.12	17
51.14	13
51.16	14
51.18	15
51.2	12
51.22	23
51.24	19
51.26	17
51.28	18
51.3	21
51.32	20
51.34	19
51.36	15
51.38	15
51.4	17
51.42	19
51.44	20
51.46	16
51.48	11
51.5	14
51.52	18
51.54	20
51.56	13
51.58	17
51.6	10
51.62	21
51.64	12
51.66	15
51.68	21
51.7	15
51.72	14
51.74	17
51.76	15
51.78	20
51.8	17
51.82	13
51.84	19
51.86	23
51.88	15
51.9	15
51.92	11
51.94	19
51.96	19
51.98	9
52	20
52.02	25
52.04	15
52.06	11
52.08	14
52.1	12
52.12	22
52.14	12
52.16	11
52.18	20
52.2	21
52.22	17
52.24	24
52.26	17
52.28	10
52.3	16
52.32	21
52.34	14
52.36	13
52.38	11
52.4	11
52.42	19
52.44	12
52.46	16
52.48	22
52.5	13
52.52	19
52.54	18
52.56	12
52.58	16
52.6	17
52.62	15
52.64	12
52.66	17
52.68	15
52.7	14
52.72	10
52.74	15
52.76	21
52.78	19
52.8	19
52.82	17
52.84	20
52.86	15
52.88	19
52.9	21
52.92	15
52.94	17
52.96	16
52.98	23
53	14
53.02	17
53.04	17
53.06	15
53.08	17
53.1	15
53.12	17
53.14	15
53.16	24
53.18	15
53.2	14
53.22	9
53.24	14
53.26	15
53.28	12
53.3	17
53.32	18
53.34	17
53.36	16
53.38	16
53.4	13
53.42	11
53.44	10
53.46	7
53.48	17
53.5	16
53.52	14
53.54	9
53.56	12
53.58	11
53.6	13
53.62	15
53.64	15
53.66	15
53.68	19
53.7	23
53.72	14
53.74	14
53.76	16
53.78	18
53.8	22
53.82	20
53.84	11
53.86	13
53.88	17
53.9	15
53.92	13
53.94	20
53.96	11
53.98	19
54	17
54.02	20
54.04	16
54.06	15
54.08	18
54.1	14
54.12	14
54.14	18
54.16	13
54.18	13
54.2	10
54.22	12
54.24	15
54.26	14
54.28	11
54.3	13
54.32	15
54.34	16
54.36	15
54.38	20
54.4	9
54.42	18
54.44	25
54.46	12
54.48	14
54.5	11
54.52	11
54.54	16
54.56	17
54.58	23
54.6	13
54.62	16
54.64	10
54.66	16
54.68	15
54.7	9
54.72	18
54.74	8
54.76	9
54.78	12
54.8	21
54.82	18
54.84	19
54.86	19
54.88	19
54.9	16
54.92	12
54.94	18
54.96	21
54.98	19
55	17
55.02	9
55.04	9
55.06	16
55.08	12
55.1	8
55.12	19
55.14	11
55.16	12
55.18	14
55.2	16
55.22	21
55.24	17
55.26	14
55.28	17
55.3	11
55.32	16
55.34	18
55.36	15
55.38	22
55.4	20
55.42	22
55.44	12
55.46	15
55.48	15
55.5	14
55.52	28
55.54	22
55.56	16
55.58	23
55.6	20
55.62	18
55.64	26
55.66	27
55.68	21
55.7	29
55.72	17
55.74	31
55.76	29
55.78	26
55.8	22
55.82	27
55.84	34
55.86	40
55.88	36
55.9	52
55.92	53
55.94	75
55.96	50
55.98	76
56	88
56.02	111
56.04	115
56.06	159
56.08	204
56.1	259
56.12	402
56.14	661
56.16	942
56.18	1430
56.2	1513
56.22	1446
56.24	1004
56.26	614
56.28	507
56.3	510
56.32	653
56.34	763
56.36	839
56.38	663
56.4	456
56.42	257
56.44	155
56.46	114
56.48	76
56.5	88
56.52	72
56.54	67
56.56	65
56.58	50
56.6	49
56.62	42
56.64	25
56.66	33
56.68	35
56.7	25
56.72	26
56.74	20
56.76	32
56.78	26
56.8	27
56.82	26
56.84	20
56.86	15
56.88	25
56.9	17
56.92	25
56.94	13
56.96	21
56.98	21
57	20
57.02	19
57.04	21
57.06	21
57.08	16
57.1	21
57.12	11
57.14	19
57.16	15
57.18	16
57.2	23
57.22	15
57.24	16
57.26	14
57.28	24
57.3	8
57.32	17
57.34	9
57.36	12
57.38	21
57.4	22
57.42	14
57.44	13
57.46	8
57.48	21
57.5	17
57.52	20
57.54	19
57.56	20
57.58	18
57.6	10
57.62	18
57.64	14
57.66	16
57.68	9
57.7	14
57.72	9
57.74	16
57.76	21
57.78	13
57.8	12
57.82	11
57.84	17
57.86	16
57.88	15
57.9	15
57.92	17
57.94	10
57.96	8
57.98	11
58	14
58.02	11
58.04	8
58.06	9
58.08	14
58.1	13
58.12	14
58.14	13
58.16	10
58.18	11
58.2	11
58.22	22
58.24	12
58.26	12
58.28	15
58.3	12
58.32	14
58.34	21
58.36	7
58.38	18
58.4	11
58.42	13
58.44	17
58.46	13
58.48	8
58.5	12
58.52	16
58.54	14
58.56	15
58.58	8
58.6	12
58.62	19
58.64	11
58.66	22
58.68	10
58.7	21
58.72	17
58.74	12
58.76	17
58.78	17
58.8	13
58.82	11
58.84	12
58.86	9
58.88	15
58.9	8
58.92	14
58.94	12
58.96	15
58.98	17
59	10
59.02	12
59.04	20
59.06	10
59.08	12
59.1	10
59.12	19
59.14	21
59.16	14
59.18	13
59.2	9
59.22	14
59.24	9
59.26	18
59.28	13
59.3	12
59.32	12
59.34	9
59.36	13
59.38	14
59.4	9
59.42	12
59.44	14
59.46	13
59.48	15
59.5	7
59.52	17
59.54	8
59.56	16
59.58	7
59.6	10
59.62	10
59.64	8
59.66	7
59.68	13
59.7	12
59.72	12
59.74	15
59.76	7
59.78	14
59.8	11
59.82	19
59.84	8
59.86	10
59.88	6
59.9	4
59.92	11
59.94	14
59.96	9
59.98	8
60	10
60.02	9
60.04	11
60.06	19
60.08	12
60.1	12
60.12	11
60.14	14
60.16	15
60.18	12
60.2	10
60.22	11
60.24	10
60.26	15
60.28	15
60.3	13
60.32	8
60.34	11
60.36	14
60.38	15
60.4	20
60.42	6
60.44	18
60.46	6
60.48	16
60.5	8
60.52	11
60.54	10
60.56	12
60.58	22
60.6	12
60.62	12
60.64	7
60.66	11
60.68	6
60.7	6
60.72	15
60.74	13
60.76	5
60.78	11
60.8	17
60.82	12
60.84	12
60.86	9
60.88	14
60.9	7
60.92	11
60.94	16
60.96	12
60.98	10
61	12
61.02	10
61.04	7
61.06	14
61.08	14
61.1	8
61.12	17
61.14	11
61.16	11
61.18	11
61.2	12
61.22	11
61.24	8
61.26	13
61.28	11
61.3	14
61.32	12
61.34	9
61.36	10
61.38	10
61.4	14
61.42	15
61.44	6
61.46	9
61.48	12
61.5	13
61.52	11
61.54	14
61.56	10
61.58	10
61.6	5
61.62	10
61.64	5
61.66	9
61.68	16
61.7	13
61.72	9
61.74	7
61.76	14
61.78	7
61.8	8
61.82	8
61.84	8
61.86	15
61.88	16
61.9	17
61.92	14
61.94	12
61.96	12
61.98	14
62	7
62.02	10
62.04	5
62.06	7
62.08	14
62.1	11
62.12	10
62.14	14
62.16	11
62.18	9
62.2	8
62.22	12
62.24	15
62.26	11
62.28	14
62.3	13
62.32	16
62.34	12
62.36	5
62.38	8
62.4	11
62.42	17
62.44	9
62.46	11
62.48	9
62.5	7
62.52	12
62.54	15
62.56	10
62.58	8
62.6	10
62.62	11
62.64	9
62.66	9
62.68	15
62.7	15
62.72	11
62.74	15
62.76	10
62.78	20
62.8	10
62.82	9
62.84	12
62.86	13
62.88	15
62.9	4
62.92	7
62.94	13
62.96	14
62.98	14
63	7
63.02	11
63.04	11
63.06	13
63.08	5
63.1	9
63.12	12
63.14	9
63.16	17
63.18	13
63.2	16
63.22	8
63.24	18
63.26	10
63.28	10
63.3	7
63.32	15
63.34	7
63.36	14
63.38	16
63.4	12
63.42	12
63.44	15
63.46	15
63.48	9
63.5	12
63.52	13
63.54	13
63.56	11
63.58	15
63.6	5
63.62	11
63.64	13
63.66	13
63.68	11
63.7	17
63.72	11
63.74	15
63.76	8
63.78	11
63.8	13
63.82	6
63.84	13
63.86	7
63.88	13
63.9	12
63.92	6
63.94	7
63.96	8
63.98	7
64	12
64.02	9
64.04	13
64.06	14
64.08	9
64.1	10
64.12	10
64.14	11
64.16	12
64.18	11
64.2	13
64.22	8
64.24	15
64.26	15
64.28	6
64.3	9
64.32	7
64.34	8
64.36	10
64.38	11
64.4	11
64.42	10
64.44	12
64.46	14
64.48	9
64.5	14
64.52	9
64.54	7
64.56	14
64.58	14
64.6	11
64.62	14
64.64	8
64.66	12
64.68	10
64.7	8
64.72	11
64.74	7
64.76	13
64.78	11
64.8	6
64.82	16
64.84	9
64.86	13
64.88	14
64.9	9
64.92	16
64.94	11
64.96	5
64.98	12
65	18
65.02	18
65.04	10
65.06	22
65.08	11
65.1	13
65.12	2
65.14	10
65.16	7
65.18	7
65.2	14
65.22	11
65.24	10
65.26	14
65.28	11
65.3	5
65.32	13
65.34	12
65.36	9
65.38	14
65.4	10
65.42	9
65.44	11
65.46	8
65.48	11
65.5	6
65.52	8
65.54	15
65.56	8
65.58	7
65.6	17
65.62	12
65.64	15
65.66	14
65.68	11
65.7	9
65.72	8
65.74	15
65.76	8
65.78	7
65.8	14
65.82	14
65.84	10
65.86	15
65.88	14
65.9	10
65.92	7
65.94	11
65.96	12
65.98	9
66	4
66.02	11
66.04	9
66.06	13
66.08	13
66.1	5
66.12	13
66.14	13
66.16	5
66.18	9
66.2	15
66.22	10
66.24	14
66.26	12
66.28	14
66.3	14
66.32	12
66.34	13
66.36	13
66.38	7
66.4	11
66.42	5
66.44	9
66.46	16
66.48	10
66.5	7
66.52	16
66.54	10
66.56	7
66.58	23
66.6	4
66.62	7
66.64	10
66.66	10
66.68	11
66.7	10
66.72	11
66.74	12
66.76	11
66.78	10
66.8	10
66.82	9
66.84	23
66.86	10
66.88	14
66.9	10
66.92	8
66.94	14
66.96	10
66.98	17
67	17
67.02	11
67.04	10
67.06	14
67.08	7
67.1	15
67.12	15
67.14	11
67.16	9
67.18	8
67.2	12
67.22	6
67.24	13
67.26	8
67.28	15
67.3	9
67.32	9
67.34	13
67.36	12
67.38	14
67.4	9
67.42	9
67.44	8
67.46	12
67.48	11
67.5	12
67.52	16
67.54	12
67.56	13
67.58	6
67.6	9
67.62	11
67.64	8
67.66	13
67.68	12
67.7	10
67.72	8
67.74	8
67.76	13
67.78	7
67.8	17
67.82	13
67.84	12
67.86	9
67.88	9
67.9	7
67.92	5
67.94	10
67.96	12
67.98	9
68	8
68.02	14
68.04	8
68.06	15
68.08	13
68.1	12
68.12	13
68.14	9
68.16	5
68.18	18
68.2	12
68.22	20
68.24	9
68.26	10
68.28	9
68.3	11
68.32	13
68.34	19
68.36	14
68.38	8
68.4	12
68.42	7
68.44	7
68.46	11
68.48	9
68.5	11
68.52	9
68.54	22
68.56	15
68.58	13
68.6	7
68.62	9
68.64	11
68.66	15
68.68	15
68.7	13
68.72	13
68.74	10
68.76	13
68.78	13
68.8	18
68.82	20
68.84	14
68.86	15
68.88	15
68.9	14
68.92	19
68.94	17
68.96	20
68.98	29
69	25
69.02	31
69.04	25
69.06	48
69.08	59
69.1	77
69.12	97
69.14	153
69.16	205
69.18	301
69.2	315
69.22	312
69.24	234
69.26	165
69.28	116
69.3	102
69.32	72
69.34	103
69.36	127
69.38	157
69.4	176
69.42	168
69.44	136
69.46	88
69.48	56
69.5	51
69.52	34
69.54	31
69.56	30
69.58	19
69.6	17
69.62	20
69.64	25
69.66	14
69.68	16
69.7	15
69.72	17
69.74	19
69.76	15
69.78	17
69.8	10
69.82	10
69.84	6
69.86	11
69.88	11
69.9	12
69.92	16
69.94	9
69.96	12
69.98	12
70	14
70.02	8
70.04	15
70.06	14
70.08	9
70.1	15
70.12	8
70.14	15
70.16	14
70.18	11
70.2	12
70.22	8
70.24	12
70.26	12
70.28	9
70.3	11
70.32	9
70.34	8
70.36	16
70.38	7
70.4	8
70.42	11
70.44	16
70.46	16
70.48	15
70.5	18
70.52	17
70.54	15
70.56	11
70.58	7
70.6	8
70.62	11
70.64	3
70.66	7
70.68	7
70.7	12
70.72	5
70.74	12
70.76	7
70.78	12
70.8	11
70.82	7
70.84	8
70.86	8
70.88	8
70.9	17
70.92	7
70.94	8
70.96	9
70.98	12
71	9
71.02	9
71.04	13
71.06	11
71.08	6
71.1	9
71.12	6
71.14	8
71.16	13
71.18	10
71.2	9
71.22	14
71.24	9
71.26	9
71.28	4
71.3	10
71.32	8
71.34	25
71.36	10
71.38	9
71.4	8
71.42	10
71.44	13
71.46	14
71.48	11
71.5	14
71.52	18
71.54	6
71.56	11
71.58	8
71.6	4
71.62	13
71.64	5
71.66	18
71.68	9
71.7	8
71.72	4
71.74	12
71.76	6
71.78	13
71.8	7
71.82	9
71.84	17
71.86	12
71.88	16
71.9	15
71.92	7
71.94	10
71.96	9
71.98	8
72	20
72.02	13
72.04	5
72.06	14
72.08	8
72.1	10
72.12	4
72.14	15
72.16	10
72.18	10
72.2	9
72.22	4
72.24	8
72.26	9
72.28	13
72.3	7
72.32	6
72.34	5
72.36	11
72.38	13
72.4	8
72.42	9
72.44	7
72.46	8
72.48	15
72.5	12
72.52	14
72.54	12
72.56	7
72.58	10
72.6	7
72.62	8
72.64	12
72.66	12
72.68	6
72.7	6
72.72	10
72.74	14
72.76	5
72.78	11
72.8	11
72.82	7
72.84	6
72.86	7
72.88	3
72.9	10
72.92	14
72.94	4
72.96	12
72.98	5
73	9
73.02	9
73.04	6
73.06	4
73.08	4
73.1	17
73.12	7
73.14	9
73.16	13
73.18	6
73.2	16
73.22	14
73.24	12
73.26	8
73.28	13
73.3	8
73.32	5
73.34	5
73.36	6
73.38	10
73.4	12
73.42	9
73.44	10
73.46	12
73.48	6
73.5	16
73.52	12
73.54	12
73.56	9
73.58	17
73.6	12
73.62	5
73.64	13
73.66	10
73.68	4
73.7	15
73.72	10
73.74	11
73.76	5
73.78	10
73.8	15
73.82	8
73.84	9
73.86	12
73.88	16
73.9	8
73.92	11
73.94	11
73.96	7
73.98	10
74	8
74.02	8
74.04	13
74.06	7
74.08	6
74.1	14
74.12	11
74.14	8
74.16	9
74.18	13
74.2	11
74.22	13
74.24	16
74.26	10
74.28	5
74.3	8
74.32	6
74.34	9
74.36	13
74.38	10
74.4	13
74.42	10
74.44	11
74.46	12
74.48	6
74.5	8
74.52	9
74.54	12
74.56	14
74.58	7
74.6	13
74.62	8
74.64	10
74.66	15
74.68	5
74.7	7
74.72	11
74.74	12
74.76	11
74.78	15
74.8	13
74.82	3
74.84	14
74.86	9
74.88	11
74.9	15
74.92	7
74.94	10
74.96	17
74.98	9
75	9
75.02	13
75.04	8
75.06	11
75.08	12
75.1	8
75.12	14
75.14	8
75.16	13
75.18	7
75.2	6
75.22	9
75.24	16
75.26	11
75.28	15
75.3	10
75.32	14
75.34	8
75.36	14
75.38	13
75.4	12
75.42	13
75.44	10
75.46	15
75.48	15
75.5	11
75.52	8
75.54	12
75.56	9
75.58	9
75.6	11
75.62	14
75.64	14
75.66	15
75.68	6
75.7	10
75.72	16
75.74	18
75.76	11
75.78	14
75.8	14
75.82	12
75.84	12
75.86	13
75.88	10
75.9	17
75.92	13
75.94	18
75.96	21
75.98	19
76	16
76.02	16
76.04	15
76.06	23
76.08	25
76.1	23
76.12	17
76.14	27
76.16	28
76.18	22
76.2	35
76.22	33
76.24	32
76.26	39
76.28	43
76.3	53
76.32	66
76.34	103
76.36	129
76.38	215
76.4	310
76.42	463
76.44	565
76.46	526
76.48	413
76.5	301
76.52	175
76.54	159
76.56	112
76.58	135
76.6	121
76.62	175
76.64	204
76.66	243
76.68	282
76.7	257
76.72	151
76.74	118
76.76	72
76.78	56
76.8	42
76.82	43
76.84	35
76.86	30
76.88	19
76.9	22
76.92	25
76.94	21
76.96	13
76.98	14
77	15
77.02	17
77.04	17
77.06	18
77.08	17
77.1	8
77.12	9
77.14	10
77.16	23
77.18	7
77.2	14
77.22	18
77.24	12
77.26	13
77.28	12
77.3	16
77.32	12
77.34	16
77.36	11
77.38	11
77.4	8
77.42	12
77.44	9
77.46	10
77.48	10
77.5	13
77.52	6
77.54	13
77.56	8
77.58	14
77.6	19
77.62	10
77.64	15
77.66	13
77.68	15
77.7	12
77.72	10
77.74	14
77.76	10
77.78	15
77.8	16
77.82	7
77.84	15
77.86	14
77.88	6
77.9	9
77.92	12
77.94	17
77.96	10
77.98	13
78	5
78.02	11
78.04	6
78.06	16
78.08	5
78.1	8
78.12	12
78.14	12
78.16	10
78.18	11
78.2	6
78.22	11
78.24	8
78.26	9
78.28	12
78.3	11
78.32	14
78.34	15
78.36	9
78.38	6
78.4	8
78.42	13
78.44	7
78.46	4
78.48	18
78.5	10
78.52	12
78.54	17
78.56	9
78.58	4
78.6	7
78.62	11
78.64	9
78.66	6
78.68	15
78.7	12
78.72	8
78.74	11
78.76	9
78.78	10
78.8	12
78.82	13
78.84	9
78.86	9
78.88	8
78.9	9
78.92	5
78.94	9
78.96	12
78.98	17
79	6
79.02	14
79.04	11
79.06	10
79.08	10
79.1	12
79.12	10
79.14	10
79.16	11
79.18	14
79.2	12
79.22	10
79.24	14
79.26	11
79.28	14
79.3	11
79.32	8
79.34	13
79.36	5
79.38	12
79.4	8
79.42	8
79.44	12
79.46	10
79.48	8
79.5	6
79.52	15
79.54	9
79.56	9
79.58	8
79.6	15
79.62	6
79.64	6
79.66	13
79.68	16
79.7	3
79.72	4
79.74	6
79.76	10
79.78	7
79.8	10
79.82	14
79.84	12
79.86	10
79.88	11
79.9	10
79.92	16
79.94	8
79.96	17
79.98	12
80	15
80.02	10
80.04	10
80.06	6
80.08	7
80.1	14
80.12	7
80.14	11
80.16	9
80.18	16
80.2	12
80.22	7
80.24	9
80.26	11
80.28	14
80.3	12
80.32	9
80.34	12
80.36	10
80.38	6
80.4	2
80.42	11
80.44	9
80.46	5
80.48	4
80.5	11
80.52	9
80.54	15
80.56	11
80.58	10
80.6	8
80.62	9
80.64	8
80.66	11
80.68	13
80.7	14
80.72	12
80.74	8
80.76	13
80.78	10
80.8	13
80.82	10
80.84	7
80.86	6
80.88	9
80.9	9
80.92	8
80.94	6
80.96	11
80.98	8
81	8
81.02	11
81.04	6
81.06	7
81.08	7
81.1	9
81.12	11
81.14	14
81.16	12
81.18	14
81.2	10
81.22	5
81.24	10
81.26	10
81.28	13
81.3	14
81.32	12
81.34	9
81.36	11
81.38	9
81.4	19
81.42	8
81.44	12
81.46	6
81.48	9
81.5	13
81.52	8
81.54	10
81.56	9
81.58	10
81.6	5
81.62	8
81.64	12
81.66	7
81.68	12
81.7	14
81.72	14
81.74	8
81.76	11
81.78	8
81.8	8
81.82	11
81.84	12
81.86	10
81.88	9
81.9	5
81.92	11
81.94	9
81.96	9
81.98	13
82	8
82.02	12
82.04	6
82.06	12
82.08	12
82.1	13
82.12	14
82.14	7
82.16	9
82.18	11
82.2	10
82.22	11
82.24	9
82.26	11
82.28	7
82.3	10
82.32	6
82.34	8
82.36	11
82.38	9
82.4	8
82.42	7
82.44	14
82.46	15
82.48	10
82.5	11
82.52	23
82.54	9
82.56	13
82.58	7
82.6	11
82.62	10
82.64	10
82.66	5
82.68	8
82.7	10
82.72	17
82.74	6
82.76	13
82.78	9
82.8	13
82.82	13
82.84	6
82.86	8
82.88	15
82.9	17
82.92	11
82.94	11
82.96	12
82.98	13
83	10
83.02	6
83.04	10
83.06	10
83.08	5
83.1	6
83.12	6
83.14	8
83.16	15
83.18	9
83.2	12
83.22	12
83.24	10
83.26	12
83.28	4
83.3	6
83.32	11
83.34	2
83.36	12
83.38	8
83.4	10
83.42	13
83.44	7
83.46	10
83.48	10
83.5	12
83.52	6
83.54	10
83.56	5
83.58	9
83.6	9
83.62	10
83.64	7
83.66	10
83.68	14
83.7	7
83.72	10
83.74	14
83.76	8
83.78	7
83.8	7
83.82	16
83.84	5
83.86	11
83.88	7
83.9	9
83.92	12
83.94	9
83.96	10
83.98	7
84	12
84.02	6
84.04	15
84.06	5
84.08	11
84.1	10
84.12	10
84.14	13
84.16	8
84.18	10
84.2	11
84.22	11
84.24	5
84.26	7
84.28	12
84.3	8
84.32	6
84.34	7
84.36	9
84.38	8
84.4	8
84.42	13
84.44	12
84.46	7
84.48	11
84.5	7
84.52	13
84.54	13
84.56	11
84.58	7
84.6	15
84.62	12
84.64	2
84.66	14
84.68	10
84.7	14
84.72	17
84.74	8
84.76	7
84.78	8
84.8	11
84.82	6
84.84	6
84.86	8
84.88	6
84.9	11
84.92	8
84.94	14
84.96	6
84.98	9
85	9
85.02	8
85.04	9
85.06	6
85.08	4
85.1	14
85.12	10
85.14	10
85.16	7
85.18	4
85.2	12
85.22	9
85.24	12
85.26	9
85.28	14
85.3	6
85.32	14
85.34	7
85.36	5
85.38	10
85.4	9
85.42	12
85.44	9
85.46	13
85.48	5
85.5	11
85.52	8
85.54	12
85.56	7
85.58	5
85.6	9
85.62	14
85.64	9
85.66	12
85.68	7
85.7	5
85.72	13
85.74	7
85.76	7
85.78	12
85.8	15
85.82	11
85.84	11
85.86	10
85.88	11
85.9	12
85.92	7
85.94	12
85.96	13
85.98	7
86	6
86.02	14
86.04	11
86.06	11
86.08	16
86.1	14
86.12	12
86.14	7
86.16	9
86.18	8
86.2	7
86.22	14
86.24	7
86.26	16
86.28	10
86.3	6
86.32	10
86.34	8
86.36	9
86.38	10
86.4	12
86.42	13
86.44	12
86.46	11
86.48	6
86.5	16
86.52	9
86.54	13
86.56	14
86.58	12
86.6	9
86.62	11
86.64	15
86.66	12
86.68	11
86.7	12
86.72	11
86.74	7
86.76	11
86.78	15
86.8	5
86.82	15
86.84	16
86.86	11
86.88	13
86.9	12
86.92	11
86.94	5
86.96	11
86.98	8
87	7
87.02	15
87.04	12
87.06	5
87.08	15
87.1	10
87.12	10
87.14	11
87.16	12
87.18	9
87.2	12
87.22	11
87.24	7
87.26	13
87.28	14
87.3	16
87.32	13
87.34	9
87.36	16
87.38	11
87.4	15
87.42	11
87.44	19
87.46	9
87.48	35
87.5	17
87.52	27
87.54	24
87.56	16
87.58	12
87.6	13
87.62	18
87.64	27
87.66	20
87.68	17
87.7	26
87.72	20
87.74	33
87.76	26
87.78	25
87.8	40
87.82	34
87.84	37
87.86	45
87.88	36
87.9	34
87.92	74
87.94	62
87.96	81
87.98	110
88	133
88.02	204
88.04	282
88.06	419
88.08	603
88.1	680
88.12	645
88.14	470
88.16	329
88.18	232
88.2	187
88.22	123
88.24	123
88.26	107
88.28	132
88.3	142
88.32	178
88.34	241
88.36	289
88.38	325
88.4	310
88.42	269
88.44	197
88.46	145
88.48	91
88.5	64
88.52	57
88.54	44
88.56	43
88.58	36
88.6	36
88.62	36
88.64	21
88.66	25
88.68	33
88.7	20
88.72	23
88.74	17
88.76	17
88.78	19
88.8	12
88.82	23
88.84	17
88.86	17
88.88	22
88.9	7
88.92	10
88.94	15
88.96	16
88.98	19
89	15
89.02	15
89.04	14
89.06	7
89.08	11
89.1	13
89.12	10
89.14	10
89.16	8
89.18	18
89.2	4
89.22	14
89.24	17
89.26	15
89.28	21
89.3	17
89.32	12
89.34	17
89.36	13
89.38	8
89.4	9
89.42	6
89.44	13
89.46	12
89.48	11
89.5	11
89.52	8
89.54	12
89.56	14
89.58	13
89.6	16
89.62	10
89.64	11
89.66	13
89.68	11
89.7	7
89.72	13
89.74	13
89.76	10
89.78	9
89.8	8
89.82	11
89.84	18
89.86	13
89.88	11
89.9	11
89.92	10
89.94	10
89.96	10
89.98	8
90	14
90.02	12
90.04	9
90.06	12
90.08	13
90.1	12
90.12	7
90.14	9
90.16	9
90.18	6
90.2	10
90.22	7
90.24	8
90.26	11
90.28	12
90.3	9
90.32	10
90.34	11
90.36	9
90.38	14
90.4	11
90.42	9
90.44	9
90.46	10
90.48	6
90.5	15
90.52	10
90.54	9
90.56	16
90.58	9
90.6	6
90.62	16
90.64	8
90.66	10
90.68	9
90.7	6
90.72	9
90.74	9
90.76	7
90.78	11
90.8	17
90.82	8
90.84	11
90.86	13
90.88	13
90.9	10
90.92	13
90.94	17
90.96	11
90.98	18
91	8
91.02	15
91.04	9
91.06	13
91.08	12
91.1	10
91.12	10
91.14	9
91.16	8
91.18	6
91.2	16
91.22	8
91.24	11
91.26	14
91.28	7
91.3	5
91.32	4
91.34	9
91.36	7
91.38	9
91.4	9
91.42	7
91.44	9
91.46	8
91.48	9
91.5	8
91.52	2
91.54	12
91.56	14
91.58	8
91.6	13
91.62	10
91.64	5
91.66	10
91.68	12
91.7	10
91.72	12
91.74	11
91.76	15
91.78	5
91.8	12
91.82	8
91.84	12
91.86	5
91.88	11
91.9	8
91.92	20
91.94	10
91.96	13
91.98	13
92	11
92.02	13
92.04	6
92.06	7
92.08	5
92.1	15
92.12	9
92.14	12
92.16	8
92.18	12
92.2	10
92.22	13
92.24	15
92.26	11
92.28	13
92.3	9
92.32	6
92.34	9
92.36	11
92.38	9
92.4	4
92.42	11
92.44	8
92.46	10
92.48	12
92.5	7
92.52	12
92.54	7
92.56	9
92.58	6
92.6	10
92.62	11
92.64	8
92.66	8
92.68	11
92.7	8
92.72	10
92.74	6
92.76	7
92.78	7
92.8	9
92.82	10
92.84	6
92.86	9
92.88	8
92.9	9
92.92	5
92.94	9
92.96	11
92.98	13
93	6
93.02	8
93.04	10
93.06	12
93.08	11
93.1	10
93.12	8
93.14	7
93.16	13
93.18	10
93.2	7
93.22	11
93.24	5
93.26	7
93.28	10
93.3	10
93.32	7
93.34	11
93.36	7
93.38	11
93.4	10
93.42	9
93.44	8
93.46	5
93.48	12
93.5	7
93.52	6
93.54	9
93.56	7
93.58	12
93.6	11
93.62	8
93.64	5
93.66	15
93.68	7
93.7	5
93.72	15
93.74	10
93.76	8
93.78	16
93.8	7
93.82	11
93.84	8
93.86	10
93.88	7
93.9	5
93.92	12
93.94	8
93.96	13
93.98	9
94	20
94.02	11
94.04	15
94.06	8
94.08	11
94.1	8
94.12	9
94.14	7
94.16	12
94.18	12
94.2	9
94.22	9
94.24	10
94.26	13
94.28	13
94.3	14
94.32	17
94.34	17
94.36	9
94.38	19
94.4	13
94.42	11
94.44	15
94.46	15
94.48	13
94.5	10
94.52	19
94.54	14
94.56	13
94.58	24
94.6	16
94.62	14
94.64	16
94.66	19
94.68	16
94.7	17
94.72	22
94.74	24
94.76	38
94.78	21
94.8	27
94.82	29
94.84	32
94.86	58
94.88	57
94.9	62
94.92	80
94.94	127
94.96	185
94.98	228
95	329
95.02	403
95.04	317
95.06	283
95.08	180
95.1	146
95.12	104
95.14	90
95.16	59
95.18	69
95.2	60
95.22	73
95.24	73
95.26	100
95.28	124
95.3	157
95.32	179
95.34	189
95.36	176
95.38	151
95.4	99
95.42	74
95.44	47
95.46	42
95.48	31
95.5	25
95.52	22
95.54	25
95.56	14
95.58	22
95.6	16
95.62	21
95.64	19
95.66	12
95.68	16
95.7	9
95.72	8
95.74	8
95.76	10
95.78	19
95.8	12
95.82	13
95.84	16
95.86	14
95.88	6
95.9	8
95.92	12
95.94	12
95.96	12
95.98	15
96	9
96.02	17
96.04	15
96.06	13
96.08	13
96.1	13
96.12	13
96.14	7
96.16	8
96.18	10
96.2	19
96.22	13
96.24	17
96.26	9
96.28	5
96.3	11
96.32	9
96.34	9
96.36	5
96.38	12
96.4	10
96.42	10
96.44	9
96.46	9
96.48	10
96.5	7
96.52	11
96.54	7
96.56	11
96.58	6
96.6	14
96.62	10
96.64	12
96.66	8
96.68	12
96.7	8
96.72	9
96.74	18
96.76	15
96.78	5
96.8	8
96.82	10
96.84	6
96.86	9
96.88	9
96.9	11
96.92	10
96.94	8
96.96	11
96.98	8
97	4
97.02	9
97.04	7
97.06	10
97.08	10
97.1	10
97.12	8
97.14	10
97.16	9
97.18	13
97.2	14
97.22	11
97.24	6
97.26	5
97.28	7
97.3	4
97.32	6
97.34	6
97.36	9
97.38	7
97.4	13
97.42	6
97.44	12
97.46	7
97.48	8
97.5	8
97.52	7
97.54	12
97.56	5
97.58	7
97.6	15
97.62	11
97.64	10
97.66	9
97.68	14
97.7	13
97.72	12
97.74	4
97.76	6
97.78	8
97.8	11
97.82	6
97.84	9
97.86	10
97.88	14
97.9	10
97.92	9
97.94	5
97.96	4
97.98	7
98	7
98.02	7
98.04	9
98.06	9
98.08	11
98.1	4
98.12	7
98.14	13
98.16	7
98.18	3
98.2	6
98.22	11
98.24	3
98.26	13
98.28	4
98.3	11
98.32	8
98.34	4
98.36	9
98.38	10
98.4	7
98.42	8
98.44	6
98.46	11
98.48	9
98.5	9
98.52	5
98.54	7
98.56	6
98.58	11
98.6	9
98.62	7
98.64	6
98.66	8
98.68	9
98.7	7
98.72	6
98.74	6
98.76	12
98.78	8
98.8	5
98.82	11
98.84	13
98.86	8
98.88	7
98.9	7
98.92	7
98.94	5
98.96	4
98.98	11
99	5
99.02	13
99.04	5
99.06	5
99.08	8
99.1	11
99.12	3
99.14	5
99.16	9
99.18	7
99.2	10
99.22	7
99.24	10
99.26	6
99.28	5
99.3	3
99.32	6
99.34	2
99.36	7
99.38	9
99.4	2
99.42	4
99.44	6
99.46	16
99.48	10
99.5	15
99.52	8
99.54	5
99.56	6
99.58	5
99.6	3
99.62	12
99.64	9
99.66	9
99.68	11
99.7	11
99.72	3
99.74	8
99.76	5
99.78	11
99.8	8
99.82	8
99.84	6
99.86	7
99.88	5
99.9	14
99.92	10
99.94	10
99.96	5
99.98	7
100	7
