27	31
27.005	50
27.01	40
27.015	37
27.02	39
27.025	63
27.03	38
27.035	32
27.04	47
27.045	42
27.05	38
27.055	40
27.06	24
27.065	36
27.07	37
27.075	30
27.08	40
27.085	48
27.09	44
27.095	36
27.1	42
27.105	46
27.11	35
27.115	31
27.12	39
27.125	38
27.13	37
27.135	37
27.14	31
27.145	33
27.15	57
27.155	53
27.16	34
27.165	43
27.17	38
27.175	38
27.18	35
27.185	34
27.19	41
27.195	44
27.2	35
27.205	42
27.21	37
27.215	31
27.22	42
27.225	38
27.23	37
27.235	32
27.24	43
27.245	37
27.25	32
27.255	38
27.26	45
27.265	49
27.27	49
27.275	40
27.28	44
27.285	48
27.29	42
27.295	32
27.3	40
27.305	43
27.31	32
27.315	42
27.32	41
27.325	53
27.33	43
27.335	35
27.34	43
27.345	36
27.35	45
27.355	42
27.36	47
27.365	38
27.37	47
27.375	33
27.38	40
27.385	42
27.39	38
27.395	38
27.4	42
27.405	40
27.41	39
27.415	31
27.42	45
27.425	40
27.43	39
27.435	55
27.44	39
27.445	51
27.45	42
27.455	34
27.46	42
27.465	48
27.47	30
27.475	44
27.48	41
27.485	33
27.49	37
27.495	42
27.5	58
27.505	39
27.51	41
27.515	50
27.52	32
27.525	35
27.53	39
27.535	40
27.54	46
27.545	38
27.55	37
27.555	42
27.56	38
27.565	54
27.57	40
27.575	44
27.58	52
27.585	43
27.59	33
27.595	48
27.6	43
27.605	51
27.61	43
27.615	47
27.62	55
27.625	37
27.63	50
27.635	48
27.64	49
27.645	47
27.65	42
27.655	38
27.66	45
27.665	45
27.67	51
27.675	61
27.68	34
27.685	40
27.69	38
27.695	45
27.7	43
27.705	48
27.71	44
27.715	53
27.72	41
27.725	39
27.73	41
27.735	41
27.74	48
27.745	34
27.75	34
27.755	35
27.76	48
27.765	51
27.77	45
27.775	42
27.78	52
27.785	48
27.79	50
27.795	54
27.8	49
27.805	33
27.81	44
27.815	49
27.82	41
27.825	47
27.83	47
27.835	48
27.84	55
27.845	48
27.85	54
27.855	47
27.86	54
27.865	42
27.87	51
27.875	53
27.88	54
27.885	64
27.89	61
27.895	49
27.9	53
27.905	57
27.91	58
27.915	57
27.92	61
27.925	52
27.93	76
27.935	54
27.94	56
27.945	47
27.95	51
27.955	58
27.96	50
27.965	52
27.97	48
27.975	46
27.98	46
27.985	61
27.99	54
27.995	51
28	58
28.005	64
28.01	62
28.015	56
28.02	48
28.025	44
28.03	58
28.035	65
28.04	53
28.045	55
28.05	48
28.055	54
28.06	72
28.065	51
28.07	67
28.075	52
28.08	60
28.085	55
28.09	64
28.095	72
28.1	79
28.105	54
28.11	81
28.115	59
28.12	75
28.125	73
28.13	68
28.135	62
28.14	72
28.145	63
28.15	85
28.155	97
28.16	81
28.165	81
28.17	74
28.175	84
28.18	90
28.185	92
28.19	88
28.195	91
28.2	88
28.205	114
28.21	96
28.215	108
28.22	107
28.225	131
28.23	116
28.235	128
28.24	145
28.245	132
28.25	147
28.255	150
28.26	151
28.265	155
28.27	175
28.275	216
28.28	209
28.285	200
28.29	224
28.295	239
28.3	256
28.305	249
28.31	246
28.315	265
28.32	299
28.325	303
28.33	326
28.335	354
28.34	368
28.345	410
28.35	440
28.355	430
28.36	465
28.365	455
28.37	541
28.375	561
28.38	607
28.385	618
28.39	651
28.395	673
28.4	717
28.405	841
28.41	807
28.415	896
28.42	950
28.425	1017
28.43	1119
28.435	1161
28.44	1207
28.445	1420
28.45	1524
28.455	1555
28.46	1626
28.465	1902
28.47	2121
28.475	2314
28.48	2552
28.485	2834
28.49	3186
28.495	3505
28.5	4009
28.505	4336
28.51	4705
28.515	5029
28.52	5349
28.525	5390
28.53	5308
28.535	5183
28.54	4988
28.545	4698
28.55	4455
28.555	4190
28.56	3706
28.565	3459
28.57	3299
28.575	3194
28.58	2988
28.585	2884
28.59	2850
28.595	2866
28.6	2756
28.605	2656
28.61	2499
28.615	2327
28.62	2162
28.625	1956
28.63	1750
28.635	1487
28.64	1233
28.645	1013
28.65	909
28.655	674
28.66	569
28.665	505
28.67	419
28.675	363
28.68	333
28.685	279
28.69	293
28.695	253
28.7	261
28.705	197
28.71	219
28.715	189
28.72	174
28.725	203
28.73	179
28.735	163
28.74	148
28.745	139
28.75	154
28.755	148
28.76	134
28.765	120
28.77	109
28.775	134
28.78	105
28.785	109
28.79	122
28.795	114
28.8	91
28.805	106
28.81	100
28.815	90
28.82	95
28.825	71
28.83	76
28.835	85
28.84	69
28.845	75
28.85	80
28.855	71
28.86	75
28.865	73
28.87	77
28.875	70
28.88	92
28.885	74
28.89	69
28.895	78
28.9	66
28.905	69
28.91	57
28.915	69
28.92	75
28.925	66
28.93	54
28.935	71
28.94	75
28.945	60
28.95	56
28.955	52
28.96	64
28.965	69
28.97	51
28.975	66
28.98	65
28.985	55
28.99	55
28.995	47
29	53
29.005	48
29.01	54
29.015	63
29.02	56
29.025	49
29.03	54
29.035	48
29.04	42
29.045	57
29.05	58
29.055	58
29.06	45
29.065	50
29.07	45
29.075	42
29.08	51
29.085	51
29.09	53
29.095	49
29.1	40
29.105	59
29.11	44
29.115	62
29.12	44
29.125	47
29.13	51
29.135	53
29.14	50
29.145	53
29.15	54
29.155	54
29.16	36
29.165	53
29.17	50
29.175	44
29.18	50
29.185	64
29.19	52
29.195	41
29.2	51
29.205	46
29.21	38
29.215	36
29.22	57
29.225	56
29.23	43
29.235	38
29.24	53
29.245	46
29.25	43
29.255	43
29.26	42
29.265	43
29.27	55
29.275	46
29.28	41
29.285	59
29.29	36
29.295	40
29.3	52
29.305	49
29.31	36
29.315	44
29.32	39
29.325	37
29.33	31
29.335	43
29.34	38
29.345	38
29.35	45
29.355	42
29.36	52
29.365	43
29.37	42
29.375	37
29.38	45
29.385	44
29.39	43
29.395	49
29.4	50
29.405	39
29.41	47
29.415	42
29.42	44
29.425	47
29.43	30
29.435	48
29.44	33
29.445	46
29.45	39
29.455	31
29.46	37
29.465	35
29.47	41
29.475	42
29.48	31
29.485	36
29.49	41
29.495	43
29.5	54
29.505	46
29.51	45
29.515	40
29.52	50
29.525	50
29.53	43
29.535	43
29.54	43
29.545	44
29.55	40
29.555	41
29.56	38
29.565	38
29.57	42
29.575	36
29.58	38
29.585	38
29.59	36
29.595	35
29.6	46
29.605	37
29.61	38
29.615	43
29.62	38
29.625	48
29.63	51
29.635	28
29.64	36
29.645	49
29.65	33
29.655	56
29.66	38
29.665	46
29.67	39
29.675	39
29.68	31
29.685	46
29.69	47
29.695	52
29.7	39
29.705	45
29.71	36
29.715	29
29.72	33
29.725	34
29.73	43
29.735	32
29.74	28
29.745	48
29.75	48
29.755	48
29.76	37
29.765	40
29.77	37
29.775	41
29.78	33
29.785	45
29.79	39
29.795	35
29.8	33
29.805	32
29.81	39
29.815	45
29.82	35
29.825	34
29.83	50
29.835	43
29.84	37
29.845	30
29.85	42
29.855	38
29.86	55
29.865	40
29.87	44
29.875	41
29.88	34
29.885	35
29.89	43
29.895	41
29.9	45
29.905	41
29.91	40
29.915	43
29.92	55
29.925	41
29.93	42
29.935	36
29.94	38
29.945	35
29.95	43
29.955	35
29.96	47
29.965	32
29.97	37
29.975	42
29.98	32
29.985	48
29.99	40
29.995	46
30	34
