5	104
5.02	137
5.04	128
5.06	155
5.08	147
5.1	120
5.12	168
5.14	125
5.16	118
5.18	130
5.2	114
5.22	121
5.24	119
5.26	138
5.28	132
5.3	137
5.32	132
5.34	116
5.36	121
5.38	128
5.4	124
5.42	138
5.44	105
5.46	117
5.48	98
5.5	111
5.52	135
5.54	133
5.56	111
5.58	117
5.6	115
5.62	119
5.64	103
5.66	118
5.68	121
5.7	107
5.72	102
5.74	101
5.76	107
5.78	119
5.8	108
5.82	116
5.84	111
5.86	95
5.88	108
5.9	109
5.92	116
5.94	90
5.96	115
5.98	100
6	118
6.02	103
6.04	86
6.06	85
6.08	93
6.1	124
6.12	109
6.14	89
6.16	112
6.18	94
6.2	115
6.22	98
6.24	94
6.26	98
6.28	87
6.3	107
6.32	118
6.34	105
6.36	91
6.38	90
6.4	99
6.42	90
6.44	107
6.46	111
6.48	83
6.5	97
6.52	91
6.54	96
6.56	90
6.58	89
6.6	95
6.62	95
6.64	88
6.66	99
6.68	93
6.7	106
6.72	102
6.74	94
6.76	84
6.78	108
6.8	92
6.82	83
6.84	87
6.86	73
6.88	91
6.9	90
6.92	76
6.94	84
6.96	83
6.98	98
7	96
7.02	90
7.04	96
7.06	73
7.08	91
7.1	89
7.12	72
7.14	91
7.16	68
7.18	72
7.2	81
7.22	89
7.24	92
7.26	81
7.28	80
7.3	76
7.32	86
7.34	80
7.36	61
7.38	85
7.4	98
7.42	77
7.44	83
7.46	74
7.48	68
7.5	78
7.52	66
7.54	75
7.56	69
7.58	78
7.6	84
7.62	72
7.64	79
7.66	88
7.68	67
7.7	85
7.72	62
7.74	66
7.76	87
7.78	70
7.8	81
7.82	78
7.84	62
7.86	79
7.88	73
7.9	65
7.92	67
7.94	83
7.96	83
7.98	82
8	71
8.02	77
8.04	67
8.06	79
8.08	68
8.1	67
8.12	80
8.14	69
8.16	77
8.18	62
8.2	56
8.22	69
8.24	64
8.26	67
8.28	65
8.3	72
8.32	71
8.34	63
8.36	68
8.38	70
8.4	72
8.42	69
8.44	64
8.46	58
8.48	64
8.5	74
8.52	55
8.54	70
8.56	67
8.58	62
8.6	66
8.62	83
8.64	68
8.66	63
8.68	73
8.7	63
8.72	67
8.74	69
8.76	61
8.78	66
8.8	62
8.82	59
8.84	71
8.86	60
8.88	67
8.9	65
8.92	60
8.94	89
8.96	44
8.98	51
9	74
9.02	47
9.04	63
9.06	54
9.08	54
9.1	55
9.12	45
9.14	82
9.16	55
9.18	66
9.2	81
9.22	58
9.24	61
9.26	69
9.28	66
9.3	67
9.32	69
9.34	74
9.36	65
9.38	56
9.4	59
9.42	61
9.44	61
9.46	58
9.48	67
9.5	65
9.52	64
9.54	62
9.56	52
9.58	49
9.6	55
9.62	53
9.64	69
9.66	59
9.68	53
9.7	67
9.72	54
9.74	55
9.76	59
9.78	54
9.8	59
9.82	49
9.84	66
9.86	54
9.88	60
9.9	56
9.92	69
9.94	57
9.96	64
9.98	46
10	47
10.02	61
10.04	58
10.06	65
10.08	66
10.1	52
10.12	53
10.14	65
10.16	74
10.18	57
10.2	61
10.22	62
10.24	59
10.26	50
10.28	54
10.3	49
10.32	52
10.34	59
10.36	53
10.38	55
10.4	62
10.42	47
10.44	52
10.46	49
10.48	53
10.5	56
10.52	64
10.54	53
10.56	59
10.58	51
10.6	71
10.62	55
10.64	62
10.66	56
10.68	73
10.7	61
10.72	51
10.74	66
10.76	54
10.78	67
10.8	65
10.82	52
10.84	65
10.86	49
10.88	64
10.9	61
10.92	65
10.94	57
10.96	46
10.98	50
11	69
11.02	61
11.04	65
11.06	58
11.08	57
11.1	65
11.12	56
11.14	59
11.16	49
11.18	59
11.2	71
11.22	54
11.24	52
11.26	60
11.28	55
11.3	44
11.32	59
11.34	58
11.36	59
11.38	60
11.4	61
11.42	53
11.44	55
11.46	51
11.48	78
11.5	53
11.52	60
11.54	56
11.56	54
11.58	48
11.6	44
11.62	50
11.64	49
11.66	41
11.68	52
11.7	63
11.72	47
11.74	48
11.76	56
11.78	41
11.8	49
11.82	52
11.84	54
11.86	51
11.88	50
11.9	58
11.92	48
11.94	47
11.96	48
11.98	44
12	47
12.02	62
12.04	45
12.06	58
12.08	46
12.1	57
12.12	67
12.14	63
12.16	49
12.18	68
12.2	49
12.22	45
12.24	33
12.26	54
12.28	41
12.3	44
12.32	59
12.34	40
12.36	53
12.38	45
12.4	47
12.42	51
12.44	37
12.46	44
12.48	47
12.5	40
12.52	47
12.54	44
12.56	50
12.58	39
12.6	48
12.62	44
12.64	43
12.66	62
12.68	34
12.7	40
12.72	35
12.74	50
12.76	46
12.78	40
12.8	43
12.82	25
12.84	38
12.86	28
12.88	43
12.9	38
12.92	44
12.94	41
12.96	53
12.98	47
13	54
13.02	37
13.04	41
13.06	30
13.08	53
13.1	33
13.12	44
13.14	49
13.16	36
13.18	41
13.2	36
13.22	37
13.24	43
13.26	41
13.28	43
13.3	46
13.32	43
13.34	46
13.36	28
13.38	32
13.4	40
13.42	33
13.44	41
13.46	44
13.48	41
13.5	32
13.52	49
13.54	33
13.56	32
13.58	46
13.6	49
13.62	41
13.64	33
13.66	37
13.68	35
13.7	27
13.72	37
13.74	39
13.76	35
13.78	40
13.8	39
13.82	38
13.84	40
13.86	33
13.88	32
13.9	30
13.92	31
13.94	41
13.96	42
13.98	31
14	44
14.02	48
14.04	32
14.06	44
14.08	36
14.1	35
14.12	35
14.14	32
14.16	39
14.18	33
14.2	34
14.22	36
14.24	35
14.26	38
14.28	32
14.3	29
14.32	35
14.34	26
14.36	35
14.38	32
14.4	34
14.42	43
14.44	35
14.46	40
14.48	24
14.5	38
14.52	32
14.54	29
14.56	42
14.58	35
14.6	25
14.62	34
14.64	22
14.66	41
14.68	30
14.7	26
14.72	43
14.74	22
14.76	36
14.78	29
14.8	30
14.82	27
14.84	37
14.86	26
14.88	28
14.9	28
14.92	34
14.94	35
14.96	39
14.98	35
15	30
15.02	25
15.04	29
15.06	27
15.08	20
15.1	33
15.12	24
15.14	30
15.16	31
15.18	26
15.2	27
15.22	36
15.24	23
15.26	25
15.28	30
15.3	31
15.32	30
15.34	32
15.36	19
15.38	19
15.4	39
15.42	20
15.44	33
15.46	27
15.48	25
15.5	27
15.52	18
15.54	27
15.56	33
15.58	25
15.6	25
15.62	30
15.64	27
15.66	23
15.68	27
15.7	30
15.72	29
15.74	28
15.76	28
15.78	28
15.8	33
15.82	27
15.84	29
15.86	27
15.88	33
15.9	24
15.92	27
15.94	22
15.96	28
15.98	26
16	23
16.02	33
16.04	23
16.06	33
16.08	22
16.1	30
16.12	23
16.14	22
16.16	26
16.18	36
16.2	31
16.22	31
16.24	25
16.26	28
16.28	23
16.3	26
16.32	23
16.34	27
16.36	23
16.38	19
16.4	25
16.42	30
16.44	19
16.46	28
16.48	20
16.5	25
16.52	22
16.54	22
16.56	34
16.58	21
16.6	32
16.62	28
16.64	26
16.66	19
16.68	22
16.7	22
16.72	35
16.74	24
16.76	20
16.78	32
16.8	25
16.82	19
16.84	32
16.86	31
16.88	34
16.9	26
16.92	27
16.94	33
16.96	19
16.98	21
17	30
17.02	27
17.04	22
17.06	25
17.08	27
17.1	28
17.12	13
17.14	17
17.16	15
17.18	28
17.2	24
17.22	19
17.24	24
17.26	17
17.28	25
17.3	21
17.32	30
17.34	19
17.36	29
17.38	22
17.4	23
17.42	28
17.44	21
17.46	24
17.48	20
17.5	19
17.52	14
17.54	22
17.56	24
17.58	22
17.6	19
17.62	22
17.64	15
17.66	17
17.68	11
17.7	24
17.72	24
17.74	13
17.76	28
17.78	14
17.8	21
17.82	24
17.84	19
17.86	30
17.88	28
17.9	25
17.92	17
17.94	23
17.96	22
17.98	21
18	15
18.02	18
18.04	13
18.06	22
18.08	20
18.1	23
18.12	24
18.14	22
18.16	17
18.18	22
18.2	14
18.22	17
18.24	22
18.26	26
18.28	12
18.3	28
18.32	19
18.34	15
18.36	32
18.38	32
18.4	14
18.42	35
18.44	27
18.46	28
18.48	20
18.5	18
18.52	19
18.54	11
18.56	17
18.58	19
18.6	22
18.62	16
18.64	21
18.66	22
18.68	20
18.7	19
18.72	19
18.74	26
18.76	27
18.78	26
18.8	23
18.82	20
18.84	14
18.86	10
18.88	15
18.9	17
18.92	16
18.94	27
18.96	22
18.98	30
19	17
19.02	23
19.04	18
19.06	18
19.08	17
19.1	28
19.12	29
19.14	22
19.16	26
19.18	13
19.2	22
19.22	18
19.24	18
19.26	20
19.28	26
19.3	9
19.32	28
19.34	17
19.36	14
19.38	25
19.4	19
19.42	25
19.44	26
19.46	19
19.48	17
19.5	21
19.52	12
19.54	28
19.56	12
19.58	14
19.6	14
19.62	19
19.64	22
19.66	12
19.68	24
19.7	35
19.72	21
19.74	24
19.76	22
19.78	22
19.8	18
19.82	12
19.84	17
19.86	10
19.88	17
19.9	22
19.92	19
19.94	17
19.96	13
19.98	19
20	19
20.02	22
20.04	19
20.06	11
20.08	16
20.1	13
20.12	16
20.14	20
20.16	18
20.18	15
20.2	18
20.22	22
20.24	18
20.26	15
20.28	13
20.3	17
20.32	12
20.34	20
20.36	15
20.38	25
20.4	27
20.42	13
20.44	23
20.46	19
20.48	18
20.5	11
20.52	15
20.54	20
20.56	21
20.58	20
20.6	13
20.62	15
20.64	17
20.66	22
20.68	17
20.7	19
20.72	17
20.74	18
20.76	19
20.78	24
20.8	19
20.82	15
20.84	15
20.86	21
20.88	11
20.9	18
20.92	9
20.94	17
20.96	16
20.98	22
21	12
21.02	10
21.04	18
21.06	16
21.08	20
21.1	24
21.12	12
21.14	17
21.16	14
21.18	17
21.2	12
21.22	13
21.24	15
21.26	13
21.28	14
21.3	12
21.32	13
21.34	17
21.36	22
21.38	10
21.4	16
21.42	10
21.44	14
21.46	13
21.48	16
21.5	19
21.52	12
21.54	17
21.56	15
21.58	14
21.6	13
21.62	11
21.64	18
21.66	14
21.68	18
21.7	16
21.72	12
21.74	12
21.76	14
21.78	20
21.8	20
21.82	20
21.84	13
21.86	17
21.88	16
21.9	13
21.92	13
21.94	12
21.96	15
21.98	18
22	12
22.02	15
22.04	12
22.06	23
22.08	13
22.1	9
22.12	9
22.14	10
22.16	17
22.18	16
22.2	9
22.22	21
22.24	19
22.26	15
22.28	8
22.3	20
22.32	12
22.34	10
22.36	13
22.38	17
22.4	13
22.42	8
22.44	15
22.46	12
22.48	15
22.5	7
22.52	16
22.54	16
22.56	12
22.58	12
22.6	14
22.62	23
22.64	12
22.66	9
22.68	9
22.7	14
22.72	14
22.74	15
22.76	11
22.78	15
22.8	19
22.82	8
22.84	17
22.86	9
22.88	12
22.9	8
22.92	18
22.94	12
22.96	15
22.98	11
23	23
23.02	17
23.04	17
23.06	16
23.08	17
23.1	13
23.12	12
23.14	14
23.16	14
23.18	13
23.2	12
23.22	14
23.24	9
23.26	13
23.28	15
23.3	8
23.32	11
23.34	14
23.36	16
23.38	15
23.4	12
23.42	12
23.44	15
23.46	17
23.48	8
23.5	13
23.52	10
23.54	21
23.56	9
23.58	6
23.6	14
23.62	19
23.64	12
23.66	14
23.68	6
23.7	17
23.72	10
23.74	14
23.76	6
23.78	11
23.8	20
23.82	11
23.84	15
23.86	18
23.88	16
23.9	7
23.92	12
23.94	14
23.96	16
23.98	4
24	14
24.02	11
24.04	17
24.06	15
24.08	11
24.1	16
24.12	12
24.14	12
24.16	14
24.18	15
24.2	12
24.22	15
24.24	10
24.26	13
24.28	10
24.3	7
24.32	11
24.34	12
24.36	13
24.38	16
24.4	14
24.42	21
24.44	14
24.46	13
24.48	13
24.5	9
24.52	13
24.54	15
24.56	18
24.58	19
24.6	11
24.62	10
24.64	9
24.66	11
24.68	10
24.7	11
24.72	20
24.74	15
24.76	15
24.78	17
24.8	8
24.82	15
24.84	10
24.86	14
24.88	12
24.9	12
24.92	13
24.94	6
24.96	10
24.98	13
25	10
25.02	11
25.04	13
25.06	19
25.08	15
25.1	5
25.12	9
25.14	18
25.16	20
25.18	7
25.2	14
25.22	10
25.24	6
25.26	7
25.28	11
25.3	14
25.32	14
25.34	13
25.36	11
25.38	13
25.4	8
25.42	10
25.44	14
25.46	10
25.48	19
25.5	5
25.52	6
25.54	8
25.56	6
25.58	13
25.6	9
25.62	9
25.64	11
25.66	18
25.68	10
25.7	13
25.72	10
25.74	18
25.76	10
25.78	17
25.8	7
25.82	13
25.84	7
25.86	10
25.88	15
25.9	6
25.92	11
25.94	12
25.96	9
25.98	15
26	7
26.02	13
26.04	9
26.06	8
26.08	11
26.1	11
26.12	9
26.14	13
26.16	14
26.18	10
26.2	8
26.22	15
26.24	14
26.26	10
26.28	10
26.3	11
26.32	9
26.34	7
26.36	15
26.38	14
26.4	11
26.42	4
26.44	16
26.46	8
26.48	9
26.5	10
26.52	9
26.54	14
26.56	6
26.58	10
26.6	7
26.62	9
26.64	11
26.66	11
26.68	13
26.7	9
26.72	14
26.74	11
26.76	8
26.78	15
26.8	18
26.82	12
26.84	12
26.86	10
26.88	8
26.9	7
26.92	15
26.94	10
26.96	12
26.98	9
27	9
27.02	9
27.04	11
27.06	17
27.08	6
27.1	16
27.12	15
27.14	18
27.16	13
27.18	11
27.2	12
27.22	6
27.24	12
27.26	16
27.28	12
27.3	14
27.32	13
27.34	7
27.36	10
27.38	10
27.4	4
27.42	7
27.44	11
27.46	10
27.48	7
27.5	13
27.52	10
27.54	9
27.56	12
27.58	7
27.6	7
27.62	13
27.64	7
27.66	8
27.68	12
27.7	6
27.72	7
27.74	14
27.76	13
27.78	8
27.8	7
27.82	11
27.84	9
27.86	14
27.88	11
27.9	5
27.92	11
27.94	13
27.96	6
27.98	14
28	10
28.02	8
28.04	4
28.06	10
28.08	15
28.1	13
28.12	11
28.14	10
28.16	5
28.18	10
28.2	4
28.22	12
28.24	11
28.26	10
28.28	9
28.3	8
28.32	10
28.34	12
28.36	10
28.38	9
28.4	13
28.42	7
28.44	10
28.46	12
28.48	18
28.5	6
28.52	8
28.54	9
28.56	10
28.58	9
28.6	11
28.62	14
28.64	10
28.66	7
28.68	10
28.7	9
28.72	8
28.74	9
28.76	5
28.78	9
28.8	7
28.82	11
28.84	7
28.86	9
28.88	11
28.9	5
28.92	5
28.94	8
28.96	7
28.98	10
29	3
29.02	10
29.04	13
29.06	4
29.08	5
29.1	6
29.12	8
29.14	6
29.16	6
29.18	9
29.2	13
29.22	11
29.24	6
29.26	10
29.28	7
29.3	6
29.32	3
29.34	15
29.36	8
29.38	8
29.4	11
29.42	4
29.44	15
29.46	5
29.48	8
29.5	9
29.52	8
29.54	9
29.56	8
29.58	6
29.6	6
29.62	11
29.64	10
29.66	5
29.68	8
29.7	11
29.72	7
29.74	9
29.76	6
29.78	2
29.8	6
29.82	4
29.84	11
29.86	13
29.88	12
29.9	5
29.92	6
29.94	11
29.96	8
29.98	9
30	9
30.02	8
30.04	7
30.06	6
30.08	11
30.1	12
30.12	6
30.14	4
30.16	9
30.18	8
30.2	7
30.22	7
30.24	8
30.26	9
30.28	10
30.3	13
30.32	8
30.34	5
30.36	8
30.38	10
30.4	11
30.42	9
30.44	10
30.46	9
30.48	15
30.5	9
30.52	4
30.54	8
30.56	14
30.58	7
30.6	8
30.62	4
30.64	12
30.66	15
30.68	3
30.7	11
30.72	9
30.74	5
30.76	12
30.78	7
30.8	9
30.82	3
30.84	5
30.86	4
30.88	4
30.9	13
30.92	10
30.94	8
30.96	12
30.98	12
31	6
31.02	8
31.04	10
31.06	6
31.08	10
31.1	13
31.12	8
31.14	3
31.16	8
31.18	8
31.2	9
31.22	6
31.24	9
31.26	10
31.28	5
31.3	4
31.32	13
31.34	6
31.36	14
31.38	9
31.4	6
31.42	11
31.44	13
31.46	9
31.48	7
31.5	10
31.52	7
31.54	5
31.56	9
31.58	10
31.6	9
31.62	8
31.64	10
31.66	8
31.68	5
31.7	5
31.72	9
31.74	9
31.76	10
31.78	4
31.8	11
31.82	7
31.84	9
31.86	4
31.88	11
31.9	9
31.92	5
31.94	4
31.96	3
31.98	9
32	9
32.02	8
32.04	6
32.06	11
32.08	11
32.1	12
32.12	5
32.14	5
32.16	9
32.18	11
32.2	7
32.22	10
32.24	11
32.26	11
32.28	9
32.3	6
32.32	11
32.34	5
32.36	9
32.38	4
32.4	11
32.42	13
32.44	10
32.46	10
32.48	6
32.5	14
32.52	9
32.54	5
32.56	10
32.58	9
32.6	17
32.62	16
32.64	14
32.66	12
32.68	9
32.7	16
32.72	14
32.74	13
32.76	17
32.78	24
32.8	19
32.82	29
32.84	25
32.86	19
32.88	27
32.9	27
32.92	56
32.94	221
32.96	355
32.98	205
33	109
33.02	107
33.04	178
33.06	151
33.08	95
33.1	45
33.12	32
33.14	16
33.16	23
33.18	13
33.2	14
33.22	26
33.24	16
33.26	26
33.28	14
33.3	11
33.32	9
33.34	16
33.36	18
33.38	13
33.4	12
33.42	9
33.44	14
33.46	15
33.48	12
33.5	13
33.52	11
33.54	17
33.56	10
33.58	9
33.6	11
33.62	16
33.64	9
33.66	19
33.68	6
33.7	14
33.72	21
33.74	15
33.76	15
33.78	16
33.8	16
33.82	17
33.84	12
33.86	14
33.88	11
33.9	16
33.92	12
33.94	13
33.96	16
33.98	13
34	15
34.02	13
34.04	7
34.06	10
34.08	13
34.1	21
34.12	11
34.14	15
34.16	10
34.18	7
34.2	16
34.22	11
34.24	10
34.26	8
34.28	11
34.3	12
34.32	12
34.34	15
34.36	13
34.38	7
34.4	16
34.42	11
34.44	16
34.46	12
34.48	11
34.5	15
34.52	9
34.54	14
34.56	6
34.58	13
34.6	15
34.62	6
34.64	9
34.66	9
34.68	10
34.7	12
34.72	7
34.74	12
34.76	11
34.78	11
34.8	13
34.82	18
34.84	8
34.86	8
34.88	7
34.9	15
34.92	14
34.94	10
34.96	12
34.98	11
35	7
35.02	9
35.04	18
35.06	8
35.08	14
35.1	9
35.12	10
35.14	7
35.16	7
35.18	10
35.2	12
35.22	10
35.24	10
35.26	9
35.28	8
35.3	12
35.32	13
35.34	8
35.36	8
35.38	11
35.4	6
35.42	11
35.44	11
35.46	12
35.48	5
35.5	8
35.52	7
35.54	9
35.56	9
35.58	7
35.6	15
35.62	11
35.64	11
35.66	12
35.68	14
35.7	13
35.72	12
35.74	9
35.76	11
35.78	9
35.8	8
35.82	11
35.84	7
35.86	8
35.88	10
35.9	11
35.92	14
35.94	5
35.96	12
35.98	9
36	11
36.02	15
36.04	9
36.06	7
36.08	9
36.1	11
36.12	4
36.14	7
36.16	7
36.18	7
36.2	5
36.22	3
36.24	5
36.26	7
36.28	5
36.3	6
36.32	8
36.34	9
36.36	7
36.38	6
36.4	4
36.42	5
36.44	7
36.46	9
36.48	4
36.5	10
36.52	4
36.54	11
36.56	8
36.58	4
36.6	3
36.62	5
36.64	5
36.66	7
36.68	12
36.7	5
36.72	5
36.74	6
36.76	5
36.78	3
36.8	6
36.82	7
36.84	5
36.86	10
36.88	5
36.9	7
36.92	7
36.94	7
36.96	5
36.98	0
37	8
37.02	10
37.04	5
37.06	6
37.08	5
37.1	9
37.12	4
37.14	4
37.16	6
37.18	5
37.2	5
37.22	10
37.24	9
37.26	7
37.28	10
37.3	8
37.32	6
37.34	4
37.36	7
37.38	11
37.4	6
37.42	6
37.44	10
37.46	6
37.48	5
37.5	10
37.52	12
37.54	16
37.56	13
37.58	14
37.6	16
37.62	9
37.64	12
37.66	17
37.68	14
37.7	6
37.72	8
37.74	8
37.76	4
37.78	7
37.8	7
37.82	3
37.84	3
37.86	1
37.88	5
37.9	3
37.92	6
37.94	4
37.96	6
37.98	12
38	5
38.02	6
38.04	2
38.06	7
38.08	8
38.1	9
38.12	2
38.14	8
38.16	7
38.18	15
38.2	5
38.22	9
38.24	1
38.26	2
38.28	6
38.3	9
38.32	4
38.34	7
38.36	7
38.38	6
38.4	6
38.42	4
38.44	10
38.46	3
38.48	6
38.5	3
38.52	6
38.54	4
38.56	5
38.58	6
38.6	3
38.62	4
38.64	7
38.66	4
38.68	3
38.7	7
38.72	4
38.74	7
38.76	5
38.78	6
38.8	13
38.82	5
38.84	7
38.86	6
38.88	4
38.9	6
38.92	6
38.94	4
38.96	6
38.98	3
39	12
39.02	10
39.04	6
39.06	7
39.08	1
39.1	6
39.12	5
39.14	8
39.16	7
39.18	4
39.2	6
39.22	6
39.24	10
39.26	3
39.28	9
39.3	4
39.32	8
39.34	3
39.36	5
39.38	5
39.4	7
39.42	3
39.44	7
39.46	6
39.48	6
39.5	5
39.52	5
39.54	3
39.56	4
39.58	7
39.6	7
39.62	7
39.64	6
39.66	5
39.68	8
39.7	7
39.72	2
39.74	6
39.76	3
39.78	0
39.8	6
39.82	1
39.84	5
39.86	4
39.88	1
39.9	5
39.92	10
39.94	6
39.96	9
39.98	6
40	7
40.02	10
40.04	3
40.06	5
40.08	3
40.1	5
40.12	5
40.14	9
40.16	2
40.18	4
40.2	3
40.22	5
40.24	6
40.26	4
40.28	2
40.3	7
40.32	8
40.34	2
40.36	5
40.38	6
40.4	7
40.42	4
40.44	10
40.46	9
40.48	3
40.5	4
40.52	6
40.54	5
40.56	2
40.58	5
40.6	3
40.62	3
40.64	3
40.66	5
40.68	1
40.7	7
40.72	3
40.74	5
40.76	7
40.78	10
40.8	4
40.82	3
40.84	7
40.86	4
40.88	3
40.9	6
40.92	5
40.94	2
40.96	3
40.98	3
41	8
41.02	3
41.04	3
41.06	5
41.08	0
41.1	4
41.12	5
41.14	8
41.16	7
41.18	5
41.2	7
41.22	9
41.24	4
41.26	5
41.28	9
41.3	1
41.32	1
41.34	4
41.36	2
41.38	5
41.4	6
41.42	1
41.44	6
41.46	5
41.48	3
41.5	1
41.52	7
41.54	2
41.56	6
41.58	10
41.6	6
41.62	5
41.64	6
41.66	5
41.68	3
41.7	9
41.72	4
41.74	7
41.76	7
41.78	2
41.8	4
41.82	7
41.84	9
41.86	7
41.88	5
41.9	8
41.92	7
41.94	2
41.96	6
41.98	5
42	3
42.02	1
42.04	7
42.06	2
42.08	4
42.1	6
42.12	4
42.14	4
42.16	4
42.18	8
42.2	7
42.22	4
42.24	5
42.26	1
42.28	1
42.3	9
42.32	5
42.34	6
42.36	4
42.38	7
42.4	8
42.42	2
42.44	0
42.46	3
42.48	5
42.5	4
42.52	0
42.54	5
42.56	4
42.58	5
42.6	6
42.62	6
42.64	4
42.66	2
42.68	4
42.7	5
42.72	2
42.74	4
42.76	5
42.78	2
42.8	3
42.82	9
42.84	4
42.86	5
42.88	2
42.9	5
42.92	5
42.94	5
42.96	7
42.98	7
43	7
43.02	4
43.04	3
43.06	2
43.08	4
43.1	3
43.12	6
43.14	5
43.16	3
43.18	1
43.2	7
43.22	7
43.24	3
43.26	5
43.28	3
43.3	3
43.32	8
43.34	4
43.36	1
43.38	2
43.4	3
43.42	6
43.44	3
43.46	5
43.48	2
43.5	5
43.52	5
43.54	5
43.56	3
43.58	4
43.6	2
43.62	3
43.64	1
43.66	2
43.68	6
43.7	5
43.72	7
43.74	3
43.76	2
43.78	1
43.8	5
43.82	6
43.84	2
43.86	4
43.88	3
43.9	9
43.92	7
43.94	4
43.96	6
43.98	2
44	5
44.02	3
44.04	8
44.06	6
44.08	3
44.1	2
44.12	8
44.14	5
44.16	5
44.18	0
44.2	6
44.22	8
44.24	6
44.26	2
44.28	4
44.3	2
44.32	8
44.34	4
44.36	7
44.38	8
44.4	6
44.42	1
44.44	4
44.46	1
44.48	4
44.5	6
44.52	6
44.54	3
44.56	11
44.58	2
44.6	6
44.62	3
44.64	5
44.66	4
44.68	7
44.7	6
44.72	7
44.74	2
44.76	0
44.78	3
44.8	3
44.82	5
44.84	3
44.86	3
44.88	4
44.9	4
44.92	4
44.94	5
44.96	4
44.98	5
45	5
45.02	3
45.04	5
45.06	8
45.08	4
45.1	7
45.12	2
45.14	3
45.16	4
45.18	6
45.2	2
45.22	3
45.24	3
45.26	2
45.28	7
45.3	3
45.32	5
45.34	6
45.36	1
45.38	7
45.4	6
45.42	2
45.44	5
45.46	4
45.48	6
45.5	7
45.52	8
45.54	3
45.56	8
45.58	8
45.6	2
45.62	2
45.64	9
45.66	2
45.68	4
45.7	3
45.72	4
45.74	4
45.76	3
45.78	1
45.8	1
45.82	4
45.84	8
45.86	3
45.88	3
45.9	2
45.92	1
45.94	6
45.96	5
45.98	4
46	9
46.02	4
46.04	1
46.06	5
46.08	9
46.1	5
46.12	4
46.14	3
46.16	2
46.18	0
46.2	3
46.22	2
46.24	5
46.26	6
46.28	2
46.3	2
46.32	4
46.34	6
46.36	5
46.38	3
46.4	2
46.42	3
46.44	5
46.46	4
46.48	5
46.5	2
46.52	4
46.54	3
46.56	4
46.58	5
46.6	2
46.62	5
46.64	1
46.66	3
46.68	10
46.7	3
46.72	1
46.74	4
46.76	4
46.78	9
46.8	5
46.82	4
46.84	6
46.86	6
46.88	2
46.9	7
46.92	3
46.94	4
46.96	5
46.98	5
47	5
47.02	4
47.04	4
47.06	6
47.08	6
47.1	4
47.12	2
47.14	5
47.16	8
47.18	3
47.2	7
47.22	4
47.24	3
47.26	4
47.28	10
47.3	2
47.32	1
47.34	1
47.36	3
47.38	2
47.4	2
47.42	2
47.44	5
47.46	6
47.48	4
47.5	5
47.52	2
47.54	3
47.56	3
47.58	3
47.6	6
47.62	8
47.64	1
47.66	4
47.68	6
47.7	2
47.72	2
47.74	5
47.76	4
47.78	3
47.8	2
47.82	4
47.84	4
47.86	3
47.88	2
47.9	4
47.92	5
47.94	2
47.96	4
47.98	6
48	7
48.02	1
48.04	4
48.06	3
48.08	5
48.1	3
48.12	2
48.14	2
48.16	0
48.18	4
48.2	4
48.22	6
48.24	4
48.26	5
48.28	0
48.3	3
48.32	3
48.34	3
48.36	5
48.38	4
48.4	1
48.42	1
48.44	1
48.46	5
48.48	4
48.5	3
48.52	5
48.54	6
48.56	1
48.58	2
48.6	3
48.62	3
48.64	0
48.66	7
48.68	6
48.7	8
48.72	3
48.74	2
48.76	4
48.78	9
48.8	5
48.82	6
48.84	4
48.86	5
48.88	3
48.9	4
48.92	5
48.94	4
48.96	3
48.98	3
49	5
49.02	3
49.04	2
49.06	1
49.08	2
49.1	2
49.12	3
49.14	3
49.16	5
49.18	6
49.2	6
49.22	4
49.24	2
49.26	4
49.28	5
49.3	2
49.32	5
49.34	3
49.36	4
49.38	9
49.4	6
49.42	3
49.44	2
49.46	6
49.48	2
49.5	4
49.52	10
49.54	3
49.56	4
49.58	3
49.6	4
49.62	4
49.64	4
49.66	2
49.68	7
49.7	1
49.72	2
49.74	5
49.76	9
49.78	2
49.8	7
49.82	3
49.84	1
49.86	1
49.88	5
49.9	7
49.92	2
49.94	4
49.96	2
49.98	3
50	1
50.02	6
50.04	5
50.06	7
50.08	11
50.1	3
50.12	8
50.14	2
50.16	3
50.18	2
50.2	2
50.22	6
50.24	2
50.26	2
50.28	3
50.3	6
50.32	4
50.34	5
50.36	5
50.38	7
50.4	3
50.42	6
50.44	4
50.46	3
50.48	4
50.5	0
50.52	3
50.54	3
50.56	4
50.58	2
50.6	5
50.62	3
50.64	4
50.66	7
50.68	6
50.7	8
50.72	7
50.74	5
50.76	2
50.78	6
50.8	3
50.82	4
50.84	4
50.86	6
50.88	5
50.9	2
50.92	1
50.94	2
50.96	6
50.98	8
51	5
51.02	6
51.04	3
51.06	5
51.08	5
51.1	3
51.12	3
51.14	5
51.16	2
51.18	5
51.2	6
51.22	3
51.24	2
51.26	3
51.28	6
51.3	8
51.32	1
51.34	3
51.36	1
51.38	5
51.4	5
51.42	2
51.44	3
51.46	4
51.48	4
51.5	4
51.52	6
51.54	4
51.56	2
51.58	4
51.6	4
51.62	3
51.64	9
51.66	6
51.68	5
51.7	2
51.72	1
51.74	4
51.76	2
51.78	4
51.8	2
51.82	6
51.84	6
51.86	2
51.88	0
51.9	4
51.92	3
51.94	4
51.96	2
51.98	2
52	4
52.02	4
52.04	3
52.06	2
52.08	6
52.1	3
52.12	2
52.14	3
52.16	3
52.18	4
52.2	6
52.22	3
52.24	2
52.26	3
52.28	1
52.3	7
52.32	4
52.34	7
52.36	2
52.38	4
52.4	1
52.42	4
52.44	5
52.46	8
52.48	5
52.5	1
52.52	10
52.54	1
52.56	5
52.58	4
52.6	3
52.62	1
52.64	8
52.66	7
52.68	7
52.7	2
52.72	3
52.74	3
52.76	4
52.78	5
52.8	5
52.82	5
52.84	4
52.86	6
52.88	6
52.9	4
52.92	2
52.94	0
52.96	4
52.98	4
53	4
53.02	2
53.04	5
53.06	6
53.08	1
53.1	7
53.12	4
53.14	3
53.16	5
53.18	2
53.2	2
53.22	3
53.24	4
53.26	7
53.28	0
53.3	3
53.32	3
53.34	5
53.36	11
53.38	8
53.4	2
53.42	5
53.44	7
53.46	1
53.48	5
53.5	3
53.52	3
53.54	5
53.56	1
53.58	4
53.6	4
53.62	3
53.64	2
53.66	4
53.68	3
53.7	4
53.72	6
53.74	3
53.76	1
53.78	3
53.8	2
53.82	4
53.84	0
53.86	4
53.88	3
53.9	5
53.92	5
53.94	3
53.96	3
53.98	9
54	4
54.02	3
54.04	4
54.06	3
54.08	0
54.1	4
54.12	4
54.14	2
54.16	6
54.18	4
54.2	6
54.22	2
54.24	3
54.26	6
54.28	8
54.3	3
54.32	2
54.34	3
54.36	7
54.38	6
54.4	3
54.42	5
54.44	5
54.46	5
54.48	4
54.5	6
54.52	6
54.54	7
54.56	2
54.58	2
54.6	3
54.62	4
54.64	11
54.66	2
54.68	2
54.7	1
54.72	4
54.74	4
54.76	6
54.78	5
54.8	3
54.82	3
54.84	3
54.86	2
54.88	2
54.9	8
54.92	7
54.94	1
54.96	2
54.98	3
55	3
55.02	3
55.04	6
55.06	4
55.08	4
55.1	6
55.12	4
55.14	4
55.16	3
55.18	6
55.2	2
55.22	2
55.24	1
55.26	1
55.28	7
55.3	4
55.32	3
55.34	5
55.36	4
55.38	5
55.4	2
55.42	3
55.44	6
55.46	6
55.48	9
55.5	6
55.52	4
55.54	3
55.56	2
55.58	4
55.6	4
55.62	5
55.64	3
55.66	1
55.68	2
55.7	2
55.72	7
55.74	4
55.76	6
55.78	2
55.8	2
55.82	3
55.84	3
55.86	5
55.88	5
55.9	3
55.92	4
55.94	6
55.96	3
55.98	5
56	2
56.02	5
56.04	5
56.06	5
56.08	3
56.1	3
56.12	5
56.14	4
56.16	8
56.18	3
56.2	4
56.22	3
56.24	3
56.26	4
56.28	5
56.3	2
56.32	7
56.34	3
56.36	0
56.38	6
56.4	4
56.42	7
56.44	7
56.46	2
56.48	9
56.5	8
56.52	3
56.54	2
56.56	3
56.58	6
56.6	4
56.62	2
56.64	10
56.66	6
56.68	2
56.7	5
56.72	6
56.74	2
56.76	1
56.78	3
56.8	4
56.82	4
56.84	2
56.86	5
56.88	5
56.9	4
56.92	4
56.94	4
56.96	3
56.98	7
57	1
57.02	3
57.04	1
57.06	1
57.08	0
57.1	3
57.12	4
57.14	4
57.16	1
57.18	8
57.2	4
57.22	7
57.24	3
57.26	1
57.28	12
57.3	3
57.32	5
57.34	1
57.36	3
57.38	5
57.4	8
57.42	1
57.44	1
57.46	9
57.48	2
57.5	1
57.52	3
57.54	10
57.56	3
57.58	6
57.6	3
57.62	3
57.64	3
57.66	4
57.68	3
57.7	7
57.72	4
57.74	2
57.76	5
57.78	3
57.8	7
57.82	2
57.84	2
57.86	7
57.88	5
57.9	2
57.92	4
57.94	7
57.96	1
57.98	3
58	5
58.02	3
58.04	6
58.06	2
58.08	3
58.1	2
58.12	5
58.14	6
58.16	3
58.18	5
58.2	5
58.22	3
58.24	7
58.26	5
58.28	6
58.3	6
58.32	2
58.34	11
58.36	1
58.38	3
58.4	7
58.42	3
58.44	3
58.46	4
58.48	7
58.5	6
58.52	6
58.54	6
58.56	6
58.58	4
58.6	6
58.62	3
58.64	6
58.66	4
58.68	3
58.7	5
58.72	4
58.74	6
58.76	6
58.78	3
58.8	3
58.82	1
58.84	5
58.86	9
58.88	5
58.9	4
58.92	5
58.94	4
58.96	3
58.98	5
59	1
59.02	5
59.04	6
59.06	2
59.08	6
59.1	6
59.12	6
59.14	5
59.16	2
59.18	8
59.2	7
59.22	4
59.24	7
59.26	3
59.28	6
59.3	3
59.32	6
59.34	4
59.36	5
59.38	5
59.4	1
59.42	6
59.44	3
59.46	5
59.48	4
59.5	3
59.52	8
59.54	7
59.56	4
59.58	3
59.6	5
59.62	4
59.64	3
59.66	6
59.68	5
59.7	5
59.72	5
59.74	5
59.76	4
59.78	3
59.8	6
59.82	4
59.84	4
59.86	4
59.88	2
59.9	3
59.92	5
59.94	5
59.96	3
59.98	3
60	2
60.02	9
60.04	1
60.06	14
60.08	4
60.1	6
60.12	4
60.14	5
60.16	4
60.18	4
60.2	3
60.22	6
60.24	5
60.26	5
60.28	6
60.3	1
60.32	1
60.34	7
60.36	7
60.38	5
60.4	5
60.42	10
60.44	7
60.46	4
60.48	5
60.5	5
60.52	1
60.54	3
60.56	5
60.58	8
60.6	8
60.62	4
60.64	8
60.66	5
60.68	2
60.7	4
60.72	2
60.74	5
60.76	9
60.78	7
60.8	5
60.82	3
60.84	4
60.86	6
60.88	3
60.9	4
60.92	8
60.94	5
60.96	4
60.98	4
61	4
61.02	4
61.04	10
61.06	6
61.08	10
61.1	6
61.12	7
61.14	9
61.16	5
61.18	3
61.2	4
61.22	9
61.24	9
61.26	5
61.28	3
61.3	5
61.32	5
61.34	8
61.36	2
61.38	2
61.4	8
61.42	6
61.44	6
61.46	5
61.48	5
61.5	9
61.52	7
61.54	5
61.56	4
61.58	6
61.6	11
61.62	8
61.64	9
61.66	16
61.68	22
61.7	22
61.72	21
61.74	14
61.76	16
61.78	8
61.8	11
61.82	6
61.84	8
61.86	8
61.88	15
61.9	3
61.92	11
61.94	7
61.96	8
61.98	8
62	5
62.02	9
62.04	5
62.06	7
62.08	8
62.1	3
62.12	8
62.14	5
62.16	14
62.18	7
62.2	7
62.22	3
62.24	3
62.26	10
62.28	5
62.3	8
62.32	8
62.34	7
62.36	7
62.38	4
62.4	10
62.42	6
62.44	4
62.46	3
62.48	7
62.5	5
62.52	12
62.54	4
62.56	8
62.58	15
62.6	5
62.62	8
62.64	4
62.66	6
62.68	4
62.7	7
62.72	6
62.74	10
62.76	6
62.78	7
62.8	6
62.82	9
62.84	4
62.86	13
62.88	11
62.9	9
62.92	9
62.94	4
62.96	10
62.98	9
63	5
63.02	8
63.04	7
63.06	5
63.08	11
63.1	12
63.12	6
63.14	14
63.16	9
63.18	5
63.2	5
63.22	6
63.24	7
63.26	4
63.28	7
63.3	9
63.32	7
63.34	5
63.36	6
63.38	7
63.4	4
63.42	7
63.44	14
63.46	9
63.48	8
63.5	8
63.52	8
63.54	7
63.56	10
63.58	7
63.6	14
63.62	0
63.64	8
63.66	6
63.68	7
63.7	6
63.72	7
63.74	15
63.76	11
63.78	8
63.8	11
63.82	10
63.84	4
63.86	10
63.88	4
63.9	12
63.92	15
63.94	6
63.96	8
63.98	8
64	11
64.02	11
64.04	13
64.06	10
64.08	17
64.1	8
64.12	7
64.14	4
64.16	5
64.18	13
64.2	13
64.22	10
64.24	12
64.26	8
64.28	14
64.3	16
64.32	10
64.34	12
64.36	9
64.38	11
64.4	7
64.42	10
64.44	12
64.46	10
64.48	15
64.5	13
64.52	14
64.54	7
64.56	10
64.58	12
64.6	8
64.62	9
64.64	15
64.66	12
64.68	11
64.7	7
64.72	6
64.74	15
64.76	11
64.78	17
64.8	14
64.82	12
64.84	15
64.86	10
64.88	17
64.9	16
64.92	13
64.94	13
64.96	17
64.98	10
65	17
65.02	16
65.04	15
65.06	18
65.08	16
65.1	9
65.12	20
65.14	20
65.16	16
65.18	16
65.2	13
65.22	18
65.24	13
65.26	20
65.28	12
65.3	26
65.32	16
65.34	22
65.36	14
65.38	20
65.4	17
65.42	17
65.44	20
65.46	19
65.48	14
65.5	22
65.52	16
65.54	13
65.56	23
65.58	15
65.6	17
65.62	9
65.64	22
65.66	12
65.68	19
65.7	15
65.72	22
65.74	19
65.76	27
65.78	13
65.8	26
65.82	23
65.84	26
65.86	22
65.88	23
65.9	16
65.92	19
65.94	17
65.96	28
65.98	19
66	17
66.02	26
66.04	21
66.06	32
66.08	21
66.1	23
66.12	23
66.14	24
66.16	24
66.18	20
66.2	26
66.22	37
66.24	32
66.26	25
66.28	40
66.3	21
66.32	36
66.34	24
66.36	38
66.38	39
66.4	36
66.42	54
66.44	40
66.46	34
66.48	44
66.5	34
66.52	39
66.54	32
66.56	36
66.58	38
66.6	42
66.62	41
66.64	52
66.66	57
66.68	48
66.7	56
66.72	60
66.74	56
66.76	56
66.78	61
66.8	52
66.82	65
66.84	69
66.86	71
66.88	69
66.9	87
66.92	96
66.94	68
66.96	78
66.98	83
67	95
67.02	89
67.04	94
67.06	99
67.08	93
67.1	82
67.12	107
67.14	118
67.16	106
67.18	117
67.2	123
67.22	116
67.24	125
67.26	150
67.28	157
67.3	149
67.32	136
67.34	168
67.36	158
67.38	162
67.4	190
67.42	161
67.44	155
67.46	166
67.48	199
67.5	178
67.52	179
67.54	193
67.56	199
67.58	225
67.6	201
67.62	222
67.64	216
67.66	235
67.68	247
67.7	261
67.72	270
67.74	244
67.76	288
67.78	272
67.8	256
67.82	280
67.84	301
67.86	304
67.88	323
67.9	293
67.92	314
67.94	316
67.96	330
67.98	355
68	360
68.02	350
68.04	358
68.06	405
68.08	400
68.1	362
68.12	427
68.14	427
68.16	448
68.18	446
68.2	433
68.22	472
68.24	509
68.26	467
68.28	571
68.3	493
68.32	549
68.34	567
68.36	569
68.38	571
68.4	608
68.42	622
68.44	655
68.46	636
68.48	721
68.5	762
68.52	775
68.54	879
68.56	872
68.58	913
68.6	961
68.62	1001
68.64	1090
68.66	1237
68.68	1349
68.7	1523
68.72	1834
68.74	2154
68.76	2618
68.78	3003
68.8	3307
68.82	3591
68.84	3522
68.86	3437
68.88	3434
68.9	3822
68.92	4316
68.94	5527
68.96	7174
68.98	8749
69	10340
69.02	12624
69.04	16436
69.06	23495
69.08	41312
69.1	101534
69.12	0
69.14	0
69.16	0
69.18	152107
69.2	64622
69.22	34727
69.24	25288
69.26	24319
69.28	32230
69.3	63497
69.32	127790
69.34	172499
69.36	145671
69.38	77511
69.4	33874
69.42	17555
69.44	11293
69.46	8274
69.48	6562
69.5	5357
69.52	4237
69.54	3510
69.56	2881
69.58	2577
69.6	2277
69.62	2059
69.64	1935
69.66	1763
69.68	1671
69.7	1534
69.72	1377
69.74	1219
69.76	1194
69.78	1163
69.8	1048
69.82	1034
69.84	935
69.86	967
69.88	892
69.9	864
69.92	813
69.94	799
69.96	747
69.98	723
70	694
70.02	685
70.04	613
70.06	624
70.08	618
70.1	617
70.12	569
70.14	497
70.16	496
70.18	546
70.2	467
70.22	457
70.24	446
70.26	436
70.28	439
70.3	417
70.32	395
70.34	371
70.36	359
70.38	348
70.4	342
70.42	330
70.44	307
70.46	300
70.48	306
70.5	281
70.52	270
70.54	266
70.56	264
70.58	254
70.6	253
70.62	235
70.64	239
70.66	195
70.68	223
70.7	216
70.72	183
70.74	189
70.76	205
70.78	178
70.8	148
70.82	166
70.84	169
70.86	165
70.88	153
70.9	132
70.92	147
70.94	145
70.96	127
70.98	150
71	135
71.02	118
71.04	109
71.06	123
71.08	108
71.1	114
71.12	97
71.14	99
71.16	93
71.18	86
71.2	85
71.22	89
71.24	88
71.26	78
71.28	81
71.3	80
71.32	83
71.34	87
71.36	70
71.38	63
71.4	72
71.42	73
71.44	63
71.46	61
71.48	48
71.5	71
71.52	60
71.54	56
71.56	58
71.58	47
71.6	46
71.62	53
71.64	49
71.66	43
71.68	54
71.7	44
71.72	55
71.74	39
71.76	57
71.78	50
71.8	56
71.82	47
71.84	28
71.86	36
71.88	46
71.9	42
71.92	45
71.94	27
71.96	29
71.98	28
72	37
72.02	35
72.04	32
72.06	33
72.08	37
72.1	43
72.12	37
72.14	32
72.16	31
72.18	33
72.2	24
72.22	31
72.24	32
72.26	35
72.28	40
72.3	30
72.32	33
72.34	36
72.36	32
72.38	28
72.4	38
72.42	26
72.44	37
72.46	27
72.48	28
72.5	29
72.52	24
72.54	22
72.56	19
72.58	23
72.6	18
72.62	20
72.64	22
72.66	20
72.68	16
72.7	24
72.72	15
72.74	13
72.76	25
72.78	13
72.8	19
72.82	20
72.84	16
72.86	21
72.88	23
72.9	10
72.92	15
72.94	19
72.96	20
72.98	18
73	17
73.02	18
73.04	16
73.06	18
73.08	14
73.1	23
73.12	15
73.14	21
73.16	18
73.18	15
73.2	19
73.22	11
73.24	20
73.26	15
73.28	17
73.3	13
73.32	17
73.34	24
73.36	18
73.38	19
73.4	16
73.42	14
73.44	12
73.46	18
73.48	12
73.5	13
73.52	15
73.54	14
73.56	9
73.58	23
73.6	23
73.62	14
73.64	16
73.66	14
73.68	19
73.7	11
73.72	12
73.74	12
73.76	15
73.78	12
73.8	9
73.82	9
73.84	9
73.86	14
73.88	13
73.9	10
73.92	13
73.94	10
73.96	13
73.98	11
74	12
74.02	10
74.04	9
74.06	15
74.08	6
74.1	15
74.12	17
74.14	15
74.16	7
74.18	10
74.2	5
74.22	14
74.24	11
74.26	9
74.28	9
74.3	8
74.32	6
74.34	14
74.36	10
74.38	7
74.4	11
74.42	6
74.44	12
74.46	8
74.48	11
74.5	5
74.52	4
74.54	7
74.56	15
74.58	14
74.6	4
74.62	12
74.64	9
74.66	8
74.68	6
74.7	10
74.72	8
74.74	10
74.76	11
74.78	14
74.8	16
74.82	5
74.84	9
74.86	10
74.88	8
74.9	7
74.92	5
74.94	12
74.96	11
74.98	4
75	9
75.02	7
75.04	9
75.06	11
75.08	13
75.1	8
75.12	8
75.14	10
75.16	14
75.18	7
75.2	3
75.22	7
75.24	10
75.26	11
75.28	7
75.3	10
75.32	6
75.34	10
75.36	7
75.38	4
75.4	11
75.42	6
75.44	3
75.46	16
75.48	7
75.5	4
75.52	7
75.54	5
75.56	7
75.58	10
75.6	10
75.62	4
75.64	7
75.66	5
75.68	5
75.7	8
75.72	7
75.74	5
75.76	7
75.78	4
75.8	8
75.82	3
75.84	7
75.86	6
75.88	10
75.9	11
75.92	4
75.94	9
75.96	6
75.98	4
76	11
76.02	5
76.04	6
76.06	4
76.08	8
76.1	7
76.12	2
76.14	10
76.16	11
76.18	3
76.2	8
76.22	8
76.24	7
76.26	4
76.28	2
76.3	7
76.32	7
76.34	8
76.36	6
76.38	7
76.4	8
76.42	8
76.44	10
76.46	9
76.48	12
76.5	5
76.52	6
76.54	5
76.56	5
76.58	2
76.6	12
76.62	8
76.64	7
76.66	4
76.68	7
76.7	9
76.72	6
76.74	6
76.76	4
76.78	2
76.8	6
76.82	5
76.84	4
76.86	2
76.88	7
76.9	6
76.92	3
76.94	10
76.96	7
76.98	2
77	2
77.02	8
77.04	5
77.06	11
77.08	5
77.1	4
77.12	8
77.14	3
77.16	8
77.18	3
77.2	8
77.22	4
77.24	3
77.26	2
77.28	2
77.3	3
77.32	1
77.34	5
77.36	11
77.38	5
77.4	6
77.42	4
77.44	4
77.46	3
77.48	9
77.5	3
77.52	6
77.54	7
77.56	5
77.58	3
77.6	4
77.62	6
77.64	8
77.66	3
77.68	2
77.7	4
77.72	3
77.74	5
77.76	5
77.78	5
77.8	6
77.82	3
77.84	6
77.86	7
77.88	1
77.9	9
77.92	4
77.94	7
77.96	4
77.98	4
78	3
78.02	4
78.04	4
78.06	2
78.08	5
78.1	4
78.12	4
78.14	4
78.16	4
78.18	5
78.2	6
78.22	8
78.24	6
78.26	7
78.28	5
78.3	2
78.32	4
78.34	5
78.36	1
78.38	3
78.4	4
78.42	2
78.44	4
78.46	7
78.48	6
78.5	10
78.52	5
78.54	5
78.56	5
78.58	2
78.6	4
78.62	3
78.64	6
78.66	4
78.68	4
78.7	3
78.72	3
78.74	5
78.76	8
78.78	6
78.8	6
78.82	2
78.84	4
78.86	6
78.88	4
78.9	4
78.92	6
78.94	5
78.96	3
78.98	5
79	4
79.02	5
79.04	3
79.06	4
79.08	4
79.1	1
79.12	6
79.14	4
79.16	3
79.18	7
79.2	5
79.22	2
79.24	5
79.26	4
79.28	7
79.3	3
79.32	7
79.34	5
79.36	3
79.38	1
79.4	5
79.42	2
79.44	1
79.46	4
79.48	1
79.5	3
79.52	9
79.54	8
79.56	2
79.58	6
79.6	2
79.62	3
79.64	3
79.66	6
79.68	3
79.7	2
79.72	2
79.74	4
79.76	5
79.78	0
79.8	5
79.82	4
79.84	2
79.86	2
79.88	4
79.9	4
79.92	7
79.94	4
79.96	3
79.98	4
80	6
80.02	2
80.04	3
80.06	3
80.08	2
80.1	3
80.12	3
80.14	4
80.16	5
80.18	4
80.2	1
80.22	3
80.24	3
80.26	2
80.28	4
80.3	6
80.32	5
80.34	2
80.36	4
80.38	6
80.4	3
80.42	10
80.44	6
80.46	2
80.48	3
80.5	0
80.52	5
80.54	4
80.56	3
80.58	2
80.6	2
80.62	5
80.64	3
80.66	3
80.68	3
80.7	3
80.72	3
80.74	2
80.76	2
80.78	6
80.8	1
80.82	5
80.84	5
80.86	5
80.88	2
80.9	7
80.92	2
80.94	6
80.96	6
80.98	5
81	4
81.02	1
81.04	2
81.06	6
81.08	4
81.1	2
81.12	3
81.14	5
81.16	2
81.18	6
81.2	1
81.22	6
81.24	4
81.26	2
81.28	2
81.3	1
81.32	3
81.34	2
81.36	3
81.38	3
81.4	5
81.42	2
81.44	4
81.46	8
81.48	3
81.5	6
81.52	1
81.54	5
81.56	2
81.58	2
81.6	4
81.62	3
81.64	2
81.66	4
81.68	2
81.7	4
81.72	3
81.74	1
81.76	1
81.78	2
81.8	0
81.82	5
81.84	4
81.86	8
81.88	3
81.9	5
81.92	5
81.94	3
81.96	5
81.98	3
82	1
82.02	3
82.04	5
82.06	1
82.08	6
82.1	1
82.12	2
82.14	3
82.16	1
82.18	2
82.2	0
82.22	2
82.24	0
82.26	1
82.28	4
82.3	3
82.32	4
82.34	1
82.36	1
82.38	3
82.4	4
82.42	6
82.44	3
82.46	2
82.48	6
82.5	3
82.52	4
82.54	6
82.56	2
82.58	1
82.6	3
82.62	3
82.64	5
82.66	3
82.68	2
82.7	0
82.72	3
82.74	2
82.76	2
82.78	4
82.8	3
82.82	1
82.84	3
82.86	1
82.88	4
82.9	2
82.92	2
82.94	2
82.96	2
82.98	0
83	5
83.02	3
83.04	4
83.06	4
83.08	3
83.1	4
83.12	4
83.14	7
83.16	3
83.18	2
83.2	2
83.22	1
83.24	6
83.26	2
83.28	2
83.3	2
83.32	3
83.34	3
83.36	2
83.38	1
83.4	0
83.42	6
83.44	4
83.46	1
83.48	2
83.5	6
83.52	3
83.54	5
83.56	3
83.58	0
83.6	1
83.62	4
83.64	5
83.66	2
83.68	3
83.7	0
83.72	2
83.74	6
83.76	7
83.78	3
83.8	1
83.82	7
83.84	3
83.86	5
83.88	2
83.9	1
83.92	7
83.94	1
83.96	5
83.98	3
84	3
84.02	1
84.04	1
84.06	3
84.08	4
84.1	7
84.12	4
84.14	4
84.16	2
84.18	5
84.2	3
84.22	2
84.24	1
84.26	1
84.28	3
84.3	3
84.32	3
84.34	5
84.36	4
84.38	3
84.4	5
84.42	3
84.44	3
84.46	3
84.48	3
84.5	2
84.52	2
84.54	3
84.56	2
84.58	0
84.6	1
84.62	1
84.64	5
84.66	4
84.68	1
84.7	2
84.72	0
84.74	3
84.76	1
84.78	2
84.8	2
84.82	2
84.84	3
84.86	2
84.88	4
84.9	5
84.92	5
84.94	2
84.96	3
84.98	2
85	5
85.02	0
85.04	1
85.06	2
85.08	0
85.1	2
85.12	3
85.14	3
85.16	2
85.18	3
85.2	2
85.22	0
85.24	0
85.26	3
85.28	4
85.3	2
85.32	1
85.34	2
85.36	3
85.38	2
85.4	4
85.42	2
85.44	4
85.46	2
85.48	1
85.5	3
85.52	5
85.54	2
85.56	5
85.58	1
85.6	5
85.62	1
85.64	2
85.66	3
85.68	2
85.7	2
85.72	0
85.74	3
85.76	5
85.78	2
85.8	3
85.82	2
85.84	3
85.86	1
85.88	1
85.9	2
85.92	4
85.94	2
85.96	2
85.98	6
86	1
86.02	2
86.04	6
86.06	3
86.08	3
86.1	4
86.12	6
86.14	3
86.16	3
86.18	2
86.2	11
86.22	3
86.24	2
86.26	2
86.28	3
86.3	5
86.32	2
86.34	2
86.36	2
86.38	3
86.4	1
86.42	1
86.44	1
86.46	0
86.48	1
86.5	1
86.52	3
86.54	3
86.56	4
86.58	2
86.6	2
86.62	7
86.64	4
86.66	5
86.68	1
86.7	2
86.72	1
86.74	5
86.76	3
86.78	1
86.8	1
86.82	4
86.84	7
86.86	1
86.88	3
86.9	1
86.92	2
86.94	3
86.96	2
86.98	1
87	2
87.02	2
87.04	1
87.06	2
87.08	6
87.1	2
87.12	2
87.14	2
87.16	5
87.18	4
87.2	1
87.22	1
87.24	2
87.26	0
87.28	6
87.3	3
87.32	5
87.34	2
87.36	3
87.38	4
87.4	3
87.42	3
87.44	6
87.46	3
87.48	6
87.5	0
87.52	5
87.54	2
87.56	4
87.58	3
87.6	3
87.62	3
87.64	2
87.66	4
87.68	2
87.7	3
87.72	2
87.74	3
87.76	3
87.78	4
87.8	0
87.82	0
87.84	1
87.86	1
87.88	6
87.9	2
87.92	3
87.94	3
87.96	3
87.98	3
88	2
88.02	5
88.04	4
88.06	2
88.08	3
88.1	1
88.12	0
88.14	4
88.16	6
88.18	5
88.2	0
88.22	5
88.24	2
88.26	3
88.28	6
88.3	3
88.32	2
88.34	5
88.36	1
88.38	3
88.4	2
88.42	2
88.44	2
88.46	6
88.48	4
88.5	2
88.52	2
88.54	4
88.56	2
88.58	6
88.6	2
88.62	0
88.64	2
88.66	5
88.68	1
88.7	3
88.72	5
88.74	1
88.76	3
88.78	3
88.8	2
88.82	2
88.84	1
88.86	3
88.88	5
88.9	1
88.92	2
88.94	2
88.96	5
88.98	1
89	1
89.02	5
89.04	2
89.06	2
89.08	2
89.1	4
89.12	1
89.14	2
89.16	3
89.18	4
89.2	2
89.22	2
89.24	1
89.26	1
89.28	2
89.3	1
89.32	6
89.34	6
89.36	3
89.38	5
89.4	5
89.42	5
89.44	3
89.46	2
89.48	3
89.5	3
89.52	1
89.54	5
89.56	1
89.58	2
89.6	1
89.62	1
89.64	2
89.66	4
89.68	2
89.7	2
89.72	5
89.74	2
89.76	1
89.78	3
89.8	2
89.82	3
89.84	1
89.86	1
89.88	2
89.9	1
89.92	2
89.94	2
89.96	1
89.98	3
90	0
90.02	2
90.04	2
90.06	1
90.08	2
90.1	2
90.12	4
90.14	4
90.16	4
90.18	2
90.2	2
90.22	3
90.24	2
90.26	2
90.28	5
90.3	0
90.32	2
90.34	3
90.36	7
90.38	2
90.4	3
90.42	4
90.44	2
90.46	3
90.48	3
90.5	3
90.52	2
90.54	1
90.56	1
90.58	3
90.6	2
90.62	2
90.64	2
90.66	3
90.68	3
90.7	4
90.72	1
90.74	4
90.76	1
90.78	4
90.8	3
90.82	3
90.84	1
90.86	5
90.88	3
90.9	4
90.92	1
90.94	2
90.96	3
90.98	4
91	5
91.02	1
91.04	3
91.06	3
91.08	1
91.1	1
91.12	4
91.14	2
91.16	2
91.18	2
91.2	2
91.22	6
91.24	1
91.26	1
91.28	3
91.3	2
91.32	1
91.34	4
91.36	3
91.38	1
91.4	6
91.42	2
91.44	2
91.46	2
91.48	0
91.5	2
91.52	1
91.54	3
91.56	8
91.58	3
91.6	2
91.62	2
91.64	5
91.66	2
91.68	3
91.7	0
91.72	3
91.74	7
91.76	1
91.78	3
91.8	2
91.82	1
91.84	5
91.86	1
91.88	2
91.9	1
91.92	3
91.94	3
91.96	3
91.98	2
92	2
92.02	1
92.04	2
92.06	3
92.08	4
92.1	2
92.12	1
92.14	1
92.16	4
92.18	3
92.2	2
92.22	1
92.24	2
92.26	4
92.28	1
92.3	4
92.32	3
92.34	2
92.36	4
92.38	5
92.4	3
92.42	3
92.44	7
92.46	1
92.48	3
92.5	5
92.52	0
92.54	3
92.56	3
92.58	2
92.6	5
92.62	3
92.64	1
92.66	3
92.68	2
92.7	1
92.72	3
92.74	3
92.76	1
92.78	3
92.8	3
92.82	1
92.84	2
92.86	2
92.88	0
92.9	0
92.92	3
92.94	0
92.96	3
92.98	5
93	3
93.02	1
93.04	4
93.06	0
93.08	3
93.1	3
93.12	4
93.14	4
93.16	0
93.18	2
93.2	1
93.22	2
93.24	1
93.26	2
93.28	5
93.3	5
93.32	2
93.34	1
93.36	2
93.38	5
93.4	2
93.42	4
93.44	3
93.46	2
93.48	3
93.5	2
93.52	0
93.54	2
93.56	3
93.58	1
93.6	1
93.62	3
93.64	2
93.66	0
93.68	5
93.7	3
93.72	1
93.74	0
93.76	3
93.78	2
93.8	1
93.82	5
93.84	2
93.86	1
93.88	3
93.9	2
93.92	3
93.94	1
93.96	3
93.98	3
94	4
94.02	0
94.04	7
94.06	2
94.08	1
94.1	2
94.12	1
94.14	2
94.16	3
94.18	1
94.2	1
94.22	2
94.24	1
94.26	2
94.28	2
94.3	2
94.32	1
94.34	2
94.36	1
94.38	1
94.4	2
94.42	1
94.44	2
94.46	5
94.48	1
94.5	3
94.52	0
94.54	2
94.56	1
94.58	3
94.6	0
94.62	1
94.64	2
94.66	2
94.68	2
94.7	3
94.72	2
94.74	3
94.76	1
94.78	2
94.8	2
94.82	3
94.84	1
94.86	2
94.88	3
94.9	4
94.92	5
94.94	2
94.96	3
94.98	3
95	0
95.02	2
95.04	2
95.06	2
95.08	2
95.1	4
95.12	3
95.14	3
95.16	6
95.18	3
95.2	1
95.22	3
95.24	3
95.26	6
95.28	1
95.3	5
95.32	1
95.34	1
95.36	2
95.38	1
95.4	3
95.42	1
95.44	2
95.46	4
95.48	2
95.5	3
95.52	2
95.54	2
95.56	2
95.58	1
95.6	3
95.62	1
95.64	2
95.66	2
95.68	4
95.7	1
95.72	4
95.74	1
95.76	4
95.78	1
95.8	0
95.82	6
95.84	2
95.86	2
95.88	1
95.9	1
95.92	0
95.94	1
95.96	0
95.98	0
96	1
96.02	4
96.04	1
96.06	2
96.08	0
96.1	3
96.12	2
96.14	3
96.16	1
96.18	2
96.2	2
96.22	2
96.24	1
96.26	3
96.28	2
96.3	3
96.32	1
96.34	2
96.36	1
96.38	2
96.4	3
96.42	3
96.44	2
96.46	1
96.48	3
96.5	0
96.52	1
96.54	1
96.56	1
96.58	2
96.6	2
96.62	0
96.64	4
96.66	2
96.68	3
96.7	2
96.72	2
96.74	1
96.76	4
96.78	2
96.8	1
96.82	1
96.84	4
96.86	2
96.88	2
96.9	3
96.92	4
96.94	3
96.96	3
96.98	4
97	2
97.02	3
97.04	2
97.06	5
97.08	3
97.1	3
97.12	2
97.14	1
97.16	1
97.18	1
97.2	0
97.22	2
97.24	2
97.26	3
97.28	3
97.3	1
97.32	0
97.34	2
97.36	3
97.38	0
97.4	1
97.42	1
97.44	2
97.46	2
97.48	4
97.5	1
97.52	2
97.54	1
97.56	1
97.58	0
97.6	0
97.62	2
97.64	2
97.66	2
97.68	2
97.7	3
97.72	1
97.74	3
97.76	0
97.78	2
97.8	3
97.82	1
97.84	4
97.86	2
97.88	3
97.9	2
97.92	4
97.94	2
97.96	2
97.98	1
98	5
98.02	1
98.04	3
98.06	2
98.08	1
98.1	5
98.12	4
98.14	4
98.16	3
98.18	2
98.2	1
98.22	2
98.24	4
98.26	2
98.28	1
98.3	3
98.32	2
98.34	1
98.36	4
98.38	0
98.4	4
98.42	2
98.44	0
98.46	3
98.48	1
98.5	3
98.52	0
98.54	1
98.56	2
98.58	2
98.6	0
98.62	3
98.64	1
98.66	2
98.68	3
98.7	2
98.72	1
98.74	3
98.76	2
98.78	3
98.8	2
98.82	0
98.84	3
98.86	1
98.88	1
98.9	5
98.92	2
98.94	1
98.96	2
98.98	2
99	4
99.02	1
99.04	1
99.06	6
99.08	3
99.1	3
99.12	1
99.14	5
99.16	3
99.18	5
99.2	1
99.22	2
99.24	2
99.26	2
99.28	1
99.3	4
99.32	2
99.34	1
99.36	1
99.38	3
99.4	3
99.42	0
99.44	2
99.46	2
99.48	3
99.5	3
99.52	1
99.54	5
99.56	3
99.58	0
99.6	2
99.62	3
99.64	2
99.66	2
99.68	8
99.7	2
99.72	2
99.74	5
99.76	2
99.78	1
99.8	1
99.82	0
99.84	1
99.86	0
99.88	0
99.9	5
99.92	0
99.94	3
99.96	3
99.98	0
100	2
