5	139
5.02	129
5.04	110
5.06	130
5.08	107
5.1	135
5.12	136
5.14	124
5.16	124
5.18	109
5.2	121
5.22	134
5.24	121
5.26	130
5.28	124
5.3	120
5.32	109
5.34	102
5.36	120
5.38	108
5.4	113
5.42	110
5.44	98
5.46	104
5.48	127
5.5	106
5.52	96
5.54	101
5.56	123
5.58	110
5.6	104
5.62	120
5.64	119
5.66	121
5.68	94
5.7	120
5.72	110
5.74	105
5.76	122
5.78	109
5.8	115
5.82	125
5.84	114
5.86	114
5.88	117
5.9	100
5.92	92
5.94	114
5.96	112
5.98	98
6	95
6.02	108
6.04	104
6.06	100
6.08	91
6.1	112
6.12	100
6.14	94
6.16	114
6.18	106
6.2	95
6.22	100
6.24	104
6.26	97
6.28	90
6.3	100
6.32	88
6.34	106
6.36	105
6.38	94
6.4	91
6.42	83
6.44	111
6.46	106
6.48	92
6.5	96
6.52	104
6.54	111
6.56	98
6.58	80
6.6	117
6.62	96
6.64	88
6.66	86
6.68	94
6.7	96
6.72	113
6.74	92
6.76	85
6.78	103
6.8	83
6.82	73
6.84	93
6.86	75
6.88	91
6.9	86
6.92	81
6.94	93
6.96	85
6.98	103
7	65
7.02	82
7.04	77
7.06	85
7.08	82
7.1	92
7.12	84
7.14	99
7.16	97
7.18	74
7.2	82
7.22	91
7.24	89
7.26	78
7.28	94
7.3	84
7.32	81
7.34	92
7.36	84
7.38	89
7.4	93
7.42	92
7.44	84
7.46	87
7.48	85
7.5	87
7.52	101
7.54	84
7.56	100
7.58	84
7.6	74
7.62	84
7.64	101
7.66	78
7.68	95
7.7	79
7.72	68
7.74	92
7.76	92
7.78	63
7.8	72
7.82	96
7.84	104
7.86	77
7.88	81
7.9	62
7.92	76
7.94	80
7.96	76
7.98	86
8	67
8.02	61
8.04	83
8.06	73
8.08	86
8.1	79
8.12	80
8.14	68
8.16	61
8.18	73
8.2	79
8.22	64
8.24	79
8.26	72
8.28	72
8.3	67
8.32	60
8.34	55
8.36	79
8.38	47
8.4	61
8.42	72
8.44	67
8.46	73
8.48	77
8.5	77
8.52	59
8.54	82
8.56	69
8.58	73
8.6	65
8.62	60
8.64	83
8.66	77
8.68	82
8.7	61
8.72	79
8.74	75
8.76	60
8.78	75
8.8	71
8.82	56
8.84	74
8.86	60
8.88	73
8.9	77
8.92	72
8.94	73
8.96	57
8.98	56
9	70
9.02	78
9.04	72
9.06	72
9.08	71
9.1	63
9.12	69
9.14	70
9.16	72
9.18	53
9.2	60
9.22	76
9.24	83
9.26	54
9.28	59
9.3	79
9.32	58
9.34	61
9.36	68
9.38	74
9.4	61
9.42	72
9.44	59
9.46	48
9.48	61
9.5	46
9.52	74
9.54	76
9.56	46
9.58	74
9.6	74
9.62	61
9.64	67
9.66	67
9.68	49
9.7	64
9.72	69
9.74	60
9.76	62
9.78	81
9.8	68
9.82	39
9.84	67
9.86	71
9.88	54
9.9	62
9.92	72
9.94	51
9.96	73
9.98	63
10	55
10.02	67
10.04	64
10.06	58
10.08	68
10.1	66
10.12	87
10.14	53
10.16	52
10.18	58
10.2	51
10.22	77
10.24	66
10.26	70
10.28	60
10.3	71
10.32	66
10.34	53
10.36	59
10.38	52
10.4	63
10.42	60
10.44	66
10.46	62
10.48	72
10.5	64
10.52	51
10.54	57
10.56	64
10.58	54
10.6	73
10.62	56
10.64	59
10.66	58
10.68	61
10.7	64
10.72	51
10.74	62
10.76	60
10.78	57
10.8	59
10.82	54
10.84	55
10.86	62
10.88	54
10.9	60
10.92	63
10.94	66
10.96	63
10.98	62
11	61
11.02	57
11.04	73
11.06	49
11.08	70
11.1	56
11.12	48
11.14	57
11.16	53
11.18	59
11.2	71
11.22	59
11.24	65
11.26	63
11.28	83
11.3	57
11.32	90
11.34	61
11.36	71
11.38	70
11.4	90
11.42	93
11.44	63
11.46	77
11.48	61
11.5	71
11.52	65
11.54	66
11.56	61
11.58	70
11.6	64
11.62	51
11.64	53
11.66	67
11.68	53
11.7	58
11.72	58
11.74	85
11.76	64
11.78	74
11.8	43
11.82	53
11.84	51
11.86	66
11.88	43
11.9	71
11.92	65
11.94	49
11.96	58
11.98	50
12	50
12.02	67
12.04	49
12.06	66
12.08	55
12.1	49
12.12	43
12.14	62
12.16	62
12.18	51
12.2	69
12.22	59
12.24	71
12.26	60
12.28	57
12.3	67
12.32	57
12.34	70
12.36	56
12.38	59
12.4	64
12.42	66
12.44	69
12.46	50
12.48	47
12.5	53
12.52	53
12.54	59
12.56	55
12.58	60
12.6	54
12.62	55
12.64	60
12.66	62
12.68	49
12.7	65
12.72	53
12.74	45
12.76	46
12.78	38
12.8	55
12.82	53
12.84	50
12.86	60
12.88	53
12.9	57
12.92	52
12.94	53
12.96	59
12.98	55
13	66
13.02	45
13.04	49
13.06	57
13.08	61
13.1	61
13.12	63
13.14	54
13.16	59
13.18	45
13.2	49
13.22	62
13.24	52
13.26	42
13.28	46
13.3	71
13.32	47
13.34	51
13.36	57
13.38	66
13.4	49
13.42	61
13.44	51
13.46	51
13.48	53
13.5	50
13.52	60
13.54	61
13.56	54
13.58	59
13.6	58
13.62	61
13.64	60
13.66	66
13.68	58
13.7	69
13.72	82
13.74	81
13.76	62
13.78	74
13.8	65
13.82	56
13.84	55
13.86	69
13.88	46
13.9	51
13.92	55
13.94	52
13.96	47
13.98	43
14	41
14.02	56
14.04	49
14.06	56
14.08	46
14.1	49
14.12	57
14.14	70
14.16	35
14.18	50
14.2	53
14.22	39
14.24	46
14.26	47
14.28	55
14.3	47
14.32	36
14.34	62
14.36	38
14.38	44
14.4	48
14.42	47
14.44	60
14.46	45
14.48	54
14.5	43
14.52	45
14.54	54
14.56	48
14.58	45
14.6	55
14.62	47
14.64	46
14.66	57
14.68	47
14.7	45
14.72	47
14.74	38
14.76	53
14.78	57
14.8	45
14.82	49
14.84	61
14.86	57
14.88	54
14.9	46
14.92	49
14.94	46
14.96	42
14.98	46
15	56
15.02	57
15.04	68
15.06	53
15.08	79
15.1	79
15.12	85
15.14	65
15.16	60
15.18	53
15.2	42
15.22	60
15.24	46
15.26	51
15.28	41
15.3	48
15.32	42
15.34	56
15.36	51
15.38	44
15.4	38
15.42	56
15.44	58
15.46	51
15.48	47
15.5	52
15.52	57
15.54	47
15.56	47
15.58	37
15.6	65
15.62	53
15.64	43
15.66	42
15.68	40
15.7	52
15.72	59
15.74	57
15.76	52
15.78	55
15.8	48
15.82	44
15.84	58
15.86	42
15.88	47
15.9	53
15.92	53
15.94	56
15.96	56
15.98	50
16	59
16.02	67
16.04	50
16.06	46
16.08	44
16.1	57
16.12	36
16.14	47
16.16	57
16.18	45
16.2	48
16.22	39
16.24	61
16.26	52
16.28	40
16.3	63
16.32	39
16.34	54
16.36	65
16.38	42
16.4	50
16.42	51
16.44	49
16.46	53
16.48	54
16.5	49
16.52	40
16.54	59
16.56	46
16.58	46
16.6	51
16.62	62
16.64	68
16.66	59
16.68	54
16.7	44
16.72	51
16.74	67
16.76	35
16.78	63
16.8	50
16.82	57
16.84	56
16.86	50
16.88	44
16.9	55
16.92	53
16.94	44
16.96	58
16.98	45
17	49
17.02	52
17.04	52
17.06	55
17.08	55
17.1	54
17.12	46
17.14	36
17.16	49
17.18	53
17.2	44
17.22	48
17.24	67
17.26	44
17.28	52
17.3	40
17.32	59
17.34	48
17.36	46
17.38	40
17.4	44
17.42	52
17.44	48
17.46	53
17.48	39
17.5	52
17.52	38
17.54	50
17.56	46
17.58	55
17.6	48
17.62	54
17.64	55
17.66	49
17.68	42
17.7	45
17.72	43
17.74	47
17.76	27
17.78	55
17.8	59
17.82	56
17.84	42
17.86	51
17.88	61
17.9	58
17.92	55
17.94	46
17.96	40
17.98	48
18	55
18.02	49
18.04	46
18.06	45
18.08	39
18.1	48
18.12	39
18.14	43
18.16	30
18.18	48
18.2	58
18.22	49
18.24	59
18.26	40
18.28	65
18.3	48
18.32	50
18.34	46
18.36	43
18.38	38
18.4	35
18.42	41
18.44	47
18.46	44
18.48	38
18.5	44
18.52	46
18.54	49
18.56	46
18.58	57
18.6	47
18.62	43
18.64	29
18.66	33
18.68	49
18.7	47
18.72	38
18.74	50
18.76	35
18.78	42
18.8	42
18.82	48
18.84	51
18.86	48
18.88	47
18.9	35
18.92	37
18.94	49
18.96	39
18.98	49
19	49
19.02	41
19.04	40
19.06	36
19.08	44
19.1	39
19.12	36
19.14	58
19.16	39
19.18	49
19.2	40
19.22	44
19.24	30
19.26	33
19.28	37
19.3	43
19.32	42
19.34	40
19.36	40
19.38	42
19.4	35
19.42	28
19.44	37
19.46	36
19.48	40
19.5	49
19.52	37
19.54	41
19.56	36
19.58	41
19.6	31
19.62	35
19.64	43
19.66	38
19.68	43
19.7	40
19.72	35
19.74	52
19.76	37
19.78	36
19.8	38
19.82	36
19.84	40
19.86	45
19.88	45
19.9	37
19.92	36
19.94	39
19.96	45
19.98	39
20	43
20.02	30
20.04	38
20.06	40
20.08	36
20.1	40
20.12	39
20.14	41
20.16	36
20.18	41
20.2	38
20.22	31
20.24	36
20.26	35
20.28	29
20.3	50
20.32	33
20.34	36
20.36	34
20.38	39
20.4	46
20.42	44
20.44	38
20.46	45
20.48	40
20.5	38
20.52	34
20.54	34
20.56	35
20.58	31
20.6	33
20.62	43
20.64	44
20.66	29
20.68	40
20.7	26
20.72	34
20.74	38
20.76	29
20.78	38
20.8	30
20.82	40
20.84	37
20.86	27
20.88	31
20.9	33
20.92	30
20.94	37
20.96	26
20.98	36
21	39
21.02	30
21.04	32
21.06	31
21.08	39
21.1	46
21.12	32
21.14	34
21.16	22
21.18	32
21.2	31
21.22	30
21.24	49
21.26	49
21.28	30
21.3	40
21.32	41
21.34	34
21.36	42
21.38	39
21.4	35
21.42	32
21.44	32
21.46	31
21.48	24
21.5	35
21.52	42
21.54	40
21.56	26
21.58	38
21.6	32
21.62	36
21.64	55
21.66	30
21.68	30
21.7	37
21.72	36
21.74	45
21.76	40
21.78	37
21.8	38
21.82	36
21.84	30
21.86	27
21.88	37
21.9	28
21.92	35
21.94	37
21.96	29
21.98	34
22	44
22.02	45
22.04	39
22.06	34
22.08	37
22.1	38
22.12	33
22.14	40
22.16	41
22.18	33
22.2	37
22.22	37
22.24	32
22.26	32
22.28	47
22.3	34
22.32	35
22.34	43
22.36	28
22.38	43
22.4	39
22.42	39
22.44	26
22.46	36
22.48	38
22.5	26
22.52	37
22.54	42
22.56	44
22.58	33
22.6	41
22.62	44
22.64	55
22.66	80
22.68	58
22.7	82
22.72	105
22.74	120
22.76	149
22.78	175
22.8	140
22.82	126
22.84	121
22.86	117
22.88	106
22.9	77
22.92	51
22.94	57
22.96	50
22.98	47
23	37
23.02	42
23.04	41
23.06	49
23.08	46
23.1	42
23.12	57
23.14	49
23.16	69
23.18	65
23.2	68
23.22	68
23.24	70
23.26	49
23.28	55
23.3	51
23.32	56
23.34	50
23.36	47
23.38	43
23.4	40
23.42	33
23.44	32
23.46	44
23.48	30
23.5	43
23.52	32
23.54	34
23.56	36
23.58	35
23.6	42
23.62	34
23.64	21
23.66	31
23.68	32
23.7	37
23.72	59
23.74	36
23.76	35
23.78	32
23.8	30
23.82	33
23.84	37
23.86	38
23.88	34
23.9	29
23.92	31
23.94	40
23.96	30
23.98	39
24	37
24.02	39
24.04	35
24.06	43
24.08	39
24.1	50
24.12	35
24.14	34
24.16	39
24.18	25
24.2	34
24.22	29
24.24	29
24.26	32
24.28	38
24.3	42
24.32	38
24.34	26
24.36	30
24.38	44
24.4	38
24.42	40
24.44	42
24.46	30
24.48	34
24.5	42
24.52	32
24.54	48
24.56	33
24.58	46
24.6	38
24.62	29
24.64	28
24.66	40
24.68	29
24.7	36
24.72	32
24.74	30
24.76	38
24.78	33
24.8	35
24.82	41
24.84	38
24.86	36
24.88	31
24.9	40
24.92	54
24.94	31
24.96	40
24.98	35
25	42
25.02	24
25.04	40
25.06	37
25.08	30
25.1	34
25.12	33
25.14	40
25.16	26
25.18	35
25.2	47
25.22	31
25.24	39
25.26	45
25.28	33
25.3	27
25.32	40
25.34	30
25.36	30
25.38	33
25.4	34
25.42	24
25.44	33
25.46	29
25.48	34
25.5	31
25.52	33
25.54	32
25.56	37
25.58	29
25.6	26
25.62	33
25.64	44
25.66	28
25.68	35
25.7	32
25.72	35
25.74	26
25.76	42
25.78	33
25.8	38
25.82	42
25.84	42
25.86	30
25.88	37
25.9	32
25.92	31
25.94	24
25.96	44
25.98	43
26	38
26.02	33
26.04	48
26.06	34
26.08	28
26.1	34
26.12	43
26.14	30
26.16	35
26.18	43
26.2	44
26.22	35
26.24	28
26.26	35
26.28	33
26.3	41
26.32	25
26.34	40
26.36	42
26.38	43
26.4	24
26.42	48
26.44	29
26.46	35
26.48	39
26.5	38
26.52	40
26.54	36
26.56	32
26.58	39
26.6	42
26.62	32
26.64	35
26.66	24
26.68	30
26.7	34
26.72	42
26.74	30
26.76	34
26.78	27
26.8	41
26.82	36
26.84	36
26.86	41
26.88	38
26.9	24
26.92	27
26.94	35
26.96	33
26.98	41
27	23
27.02	37
27.04	29
27.06	42
27.08	29
27.1	34
27.12	50
27.14	31
27.16	38
27.18	29
27.2	45
27.22	30
27.24	32
27.26	31
27.28	38
27.3	44
27.32	42
27.34	39
27.36	44
27.38	40
27.4	46
27.42	50
27.44	51
27.46	55
27.48	61
27.5	70
27.52	75
27.54	73
27.56	69
27.58	57
27.6	60
27.62	46
27.64	51
27.66	54
27.68	52
27.7	45
27.72	56
27.74	64
27.76	54
27.78	76
27.8	77
27.82	101
27.84	100
27.86	87
27.88	73
27.9	79
27.92	64
27.94	53
27.96	49
27.98	37
28	30
28.02	40
28.04	34
28.06	39
28.08	42
28.1	32
28.12	39
28.14	34
28.16	35
28.18	43
28.2	37
28.22	35
28.24	39
28.26	41
28.28	30
28.3	37
28.32	33
28.34	23
28.36	38
28.38	28
28.4	38
28.42	32
28.44	33
28.46	33
28.48	29
28.5	34
28.52	37
28.54	27
28.56	36
28.58	38
28.6	35
28.62	40
28.64	40
28.66	42
28.68	43
28.7	31
28.72	30
28.74	35
28.76	49
28.78	21
28.8	37
28.82	39
28.84	55
28.86	34
28.88	26
28.9	34
28.92	42
28.94	39
28.96	42
28.98	33
29	37
29.02	42
29.04	28
29.06	30
29.08	25
29.1	31
29.12	41
29.14	42
29.16	36
29.18	39
29.2	29
29.22	33
29.24	37
29.26	35
29.28	36
29.3	33
29.32	23
29.34	33
29.36	37
29.38	38
29.4	32
29.42	44
29.44	30
29.46	40
29.48	27
29.5	31
29.52	31
29.54	40
29.56	36
29.58	36
29.6	35
29.62	39
29.64	34
29.66	52
29.68	38
29.7	36
29.72	48
29.74	55
29.76	80
29.78	92
29.8	68
29.82	71
29.84	63
29.86	70
29.88	53
29.9	44
29.92	39
29.94	46
29.96	42
29.98	41
30	43
30.02	39
30.04	34
30.06	38
30.08	26
30.1	36
30.12	34
30.14	36
30.16	28
30.18	24
30.2	29
30.22	35
30.24	38
30.26	32
30.28	33
30.3	39
30.32	45
30.34	32
30.36	39
30.38	56
30.4	54
30.42	44
30.44	58
30.46	72
30.48	78
30.5	65
30.52	66
30.54	56
30.56	62
30.58	67
30.6	49
30.62	48
30.64	55
30.66	40
30.68	41
30.7	48
30.72	34
30.74	38
30.76	40
30.78	38
30.8	32
30.82	48
30.84	40
30.86	33
30.88	43
30.9	42
30.92	41
30.94	32
30.96	37
30.98	25
31	29
31.02	40
31.04	36
31.06	40
31.08	39
31.1	34
31.12	53
31.14	25
31.16	33
31.18	27
31.2	33
31.22	35
31.24	27
31.26	42
31.28	44
31.3	36
31.32	31
31.34	34
31.36	36
31.38	29
31.4	21
31.42	33
31.44	42
31.46	48
31.48	49
31.5	50
31.52	55
31.54	63
31.56	75
31.58	57
31.6	52
31.62	65
31.64	49
31.66	54
31.68	42
31.7	51
31.72	42
31.74	32
31.76	39
31.78	33
31.8	40
31.82	48
31.84	44
31.86	44
31.88	42
31.9	50
31.92	45
31.94	50
31.96	39
31.98	43
32	54
32.02	43
32.04	36
32.06	43
32.08	45
32.1	44
32.12	46
32.14	47
32.16	49
32.18	54
32.2	46
32.22	70
32.24	59
32.26	65
32.28	74
32.3	93
32.32	93
32.34	104
32.36	156
32.38	199
32.4	318
32.42	401
32.44	615
32.46	691
32.48	753
32.5	757
32.52	694
32.54	653
32.56	620
32.58	576
32.6	457
32.62	442
32.64	418
32.66	482
32.68	533
32.7	712
32.72	917
32.74	1140
32.76	1339
32.78	1429
32.8	1485
32.82	1301
32.84	1056
32.86	915
32.88	757
32.9	577
32.92	382
32.94	215
32.96	136
32.98	108
33	82
33.02	76
33.04	78
33.06	64
33.08	61
33.1	50
33.12	50
33.14	38
33.16	49
33.18	45
33.2	37
33.22	41
33.24	36
33.26	37
33.28	36
33.3	45
33.32	41
33.34	41
33.36	38
33.38	27
33.4	40
33.42	43
33.44	46
33.46	36
33.48	36
33.5	39
33.52	47
33.54	42
33.56	54
33.58	30
33.6	30
33.62	49
33.64	49
33.66	58
33.68	54
33.7	51
33.72	46
33.74	40
33.76	40
33.78	44
33.8	33
33.82	36
33.84	37
33.86	31
33.88	29
33.9	35
33.92	41
33.94	50
33.96	32
33.98	31
34	47
34.02	45
34.04	31
34.06	44
34.08	43
34.1	36
34.12	40
34.14	41
34.16	43
34.18	31
34.2	28
34.22	32
34.24	30
34.26	27
34.28	30
34.3	38
34.32	32
34.34	32
34.36	50
34.38	33
34.4	29
34.42	40
34.44	37
34.46	36
34.48	34
34.5	31
34.52	46
34.54	30
34.56	33
34.58	26
34.6	33
34.62	28
34.64	26
34.66	29
34.68	43
34.7	22
34.72	25
34.74	30
34.76	34
34.78	35
34.8	32
34.82	32
34.84	33
34.86	21
34.88	40
34.9	33
34.92	33
34.94	40
34.96	35
34.98	36
35	36
35.02	35
35.04	41
35.06	32
35.08	41
35.1	41
35.12	25
35.14	40
35.16	25
35.18	37
35.2	27
35.22	28
35.24	34
35.26	28
35.28	31
35.3	30
35.32	25
35.34	32
35.36	37
35.38	39
35.4	32
35.42	45
35.44	35
35.46	36
35.48	39
35.5	32
35.52	30
35.54	35
35.56	43
35.58	40
35.6	44
35.62	33
35.64	35
35.66	32
35.68	32
35.7	31
35.72	32
35.74	48
35.76	28
35.78	33
35.8	25
35.82	30
35.84	41
35.86	31
35.88	45
35.9	37
35.92	24
35.94	38
35.96	33
35.98	37
36	50
36.02	51
36.04	31
36.06	25
36.08	37
36.1	23
36.12	32
36.14	37
36.16	40
36.18	37
36.2	39
36.22	58
36.24	55
36.26	56
36.28	61
36.3	60
36.32	63
36.34	65
36.36	60
36.38	54
36.4	63
36.42	55
36.44	36
36.46	41
36.48	33
36.5	35
36.52	42
36.54	24
36.56	27
36.58	33
36.6	36
36.62	47
36.64	35
36.66	39
36.68	36
36.7	44
36.72	35
36.74	37
36.76	42
36.78	35
36.8	43
36.82	38
36.84	36
36.86	31
36.88	41
36.9	38
36.92	36
36.94	31
36.96	34
36.98	39
37	46
37.02	38
37.04	40
37.06	37
37.08	47
37.1	42
37.12	35
37.14	42
37.16	36
37.18	42
37.2	28
37.22	39
37.24	35
37.26	36
37.28	44
37.3	35
37.32	31
37.34	41
37.36	37
37.38	36
37.4	26
37.42	30
37.44	29
37.46	44
37.48	34
37.5	28
37.52	40
37.54	34
37.56	42
37.58	38
37.6	31
37.62	38
37.64	38
37.66	33
37.68	46
37.7	51
37.72	37
37.74	33
37.76	30
37.78	32
37.8	33
37.82	46
37.84	32
37.86	35
37.88	40
37.9	52
37.92	40
37.94	32
37.96	34
37.98	50
38	38
38.02	49
38.04	33
38.06	39
38.08	48
38.1	27
38.12	36
38.14	43
38.16	39
38.18	35
38.2	36
38.22	48
38.24	50
38.26	48
38.28	48
38.3	51
38.32	79
38.34	82
38.36	79
38.38	122
38.4	185
38.42	196
38.44	227
38.46	256
38.48	212
38.5	207
38.52	176
38.54	192
38.56	151
38.58	160
38.6	127
38.62	85
38.64	76
38.66	64
38.68	84
38.7	86
38.72	81
38.74	72
38.76	70
38.78	59
38.8	62
38.82	72
38.84	55
38.86	39
38.88	51
38.9	49
38.92	51
38.94	39
38.96	35
38.98	55
39	46
39.02	41
39.04	44
39.06	47
39.08	37
39.1	40
39.12	44
39.14	41
39.16	35
39.18	41
39.2	35
39.22	34
39.24	42
39.26	39
39.28	45
39.3	38
39.32	38
39.34	30
39.36	36
39.38	31
39.4	29
39.42	37
39.44	34
39.46	39
39.48	41
39.5	42
39.52	37
39.54	37
39.56	36
39.58	28
39.6	33
39.62	40
39.64	26
39.66	28
39.68	48
39.7	43
39.72	33
39.74	26
39.76	45
39.78	40
39.8	30
39.82	28
39.84	38
39.86	30
39.88	31
39.9	44
39.92	32
39.94	33
39.96	43
39.98	27
40	41
40.02	40
40.04	37
40.06	45
40.08	40
40.1	56
40.12	52
40.14	43
40.16	47
40.18	56
40.2	54
40.22	105
40.24	116
40.26	186
40.28	238
40.3	265
40.32	260
40.34	232
40.36	210
40.38	215
40.4	176
40.42	168
40.44	150
40.46	115
40.48	80
40.5	61
40.52	44
40.54	48
40.56	50
40.58	49
40.6	30
40.62	56
40.64	51
40.66	44
40.68	48
40.7	53
40.72	39
40.74	47
40.76	43
40.78	41
40.8	41
40.82	48
40.84	48
40.86	35
40.88	35
40.9	36
40.92	43
40.94	36
40.96	38
40.98	44
41	30
41.02	33
41.04	51
41.06	38
41.08	36
41.1	35
41.12	37
41.14	29
41.16	41
41.18	33
41.2	39
41.22	38
41.24	39
41.26	36
41.28	30
41.3	21
41.32	49
41.34	50
41.36	46
41.38	29
41.4	44
41.42	29
41.44	53
41.46	44
41.48	30
41.5	30
41.52	37
41.54	42
41.56	23
41.58	41
41.6	23
41.62	30
41.64	37
41.66	35
41.68	35
41.7	35
41.72	32
41.74	40
41.76	36
41.78	32
41.8	40
41.82	37
41.84	48
41.86	48
41.88	31
41.9	37
41.92	36
41.94	38
41.96	34
41.98	39
42	30
42.02	40
42.04	31
42.06	39
42.08	37
42.1	40
42.12	39
42.14	28
42.16	35
42.18	33
42.2	30
42.22	41
42.24	36
42.26	39
42.28	37
42.3	37
42.32	33
42.34	34
42.36	32
42.38	40
42.4	29
42.42	34
42.44	36
42.46	39
42.48	34
42.5	33
42.52	36
42.54	30
42.56	39
42.58	45
42.6	35
42.62	44
42.64	36
42.66	29
42.68	28
42.7	34
42.72	42
42.74	35
42.76	32
42.78	39
42.8	45
42.82	35
42.84	29
42.86	34
42.88	34
42.9	33
42.92	25
42.94	51
42.96	30
42.98	39
43	44
43.02	33
43.04	35
43.06	40
43.08	34
43.1	28
43.12	34
43.14	29
43.16	34
43.18	20
43.2	47
43.22	28
43.24	34
43.26	27
43.28	33
43.3	30
43.32	40
43.34	45
43.36	40
43.38	35
43.4	32
43.42	41
43.44	29
43.46	42
43.48	39
43.5	31
43.52	36
43.54	35
43.56	49
43.58	40
43.6	37
43.62	39
43.64	36
43.66	53
43.68	48
43.7	45
43.72	41
43.74	28
43.76	34
43.78	35
43.8	51
43.82	31
43.84	45
43.86	33
43.88	32
43.9	39
43.92	44
43.94	39
43.96	38
43.98	34
44	37
44.02	28
44.04	36
44.06	44
44.08	40
44.1	27
44.12	46
44.14	41
44.16	37
44.18	41
44.2	44
44.22	42
44.24	32
44.26	35
44.28	35
44.3	37
44.32	43
44.34	36
44.36	33
44.38	38
44.4	34
44.42	45
44.44	42
44.46	35
44.48	29
44.5	41
44.52	46
44.54	34
44.56	51
44.58	38
44.6	32
44.62	40
44.64	35
44.66	41
44.68	51
44.7	38
44.72	34
44.74	44
44.76	35
44.78	34
44.8	35
44.82	33
44.84	37
44.86	37
44.88	45
44.9	32
44.92	42
44.94	35
44.96	31
44.98	36
45	43
45.02	33
45.04	43
45.06	49
45.08	40
45.1	36
45.12	33
45.14	30
45.16	38
45.18	62
45.2	47
45.22	52
45.24	44
45.26	36
45.28	52
45.3	56
45.32	56
45.34	57
45.36	45
45.38	51
45.4	56
45.42	51
45.44	62
45.46	66
45.48	53
45.5	66
45.52	49
45.54	55
45.56	49
45.58	51
45.6	52
45.62	54
45.64	42
45.66	64
45.68	39
45.7	29
45.72	46
45.74	46
45.76	39
45.78	35
45.8	46
45.82	38
45.84	27
45.86	20
45.88	36
45.9	48
45.92	38
45.94	33
45.96	45
45.98	35
46	51
46.02	51
46.04	47
46.06	50
46.08	40
46.1	40
46.12	55
46.14	46
46.16	37
46.18	46
46.2	42
46.22	35
46.24	51
46.26	38
46.28	58
46.3	60
46.32	43
46.34	42
46.36	65
46.38	58
46.4	66
46.42	88
46.44	98
46.46	120
46.48	120
46.5	188
46.52	233
46.54	280
46.56	265
46.58	262
46.6	263
46.62	313
46.64	341
46.66	338
46.68	324
46.7	318
46.72	207
46.74	241
46.76	178
46.78	178
46.8	178
46.82	146
46.84	105
46.86	84
46.88	89
46.9	66
46.92	63
46.94	56
46.96	49
46.98	48
47	63
47.02	57
47.04	51
47.06	60
47.08	62
47.1	57
47.12	50
47.14	66
47.16	51
47.18	60
47.2	62
47.22	47
47.24	49
47.26	64
47.28	60
47.3	72
47.32	57
47.34	86
47.36	96
47.38	95
47.4	97
47.42	125
47.44	121
47.46	173
47.48	189
47.5	181
47.52	212
47.54	178
47.56	195
47.58	134
47.6	149
47.62	138
47.64	133
47.66	127
47.68	99
47.7	95
47.72	61
47.74	58
47.76	47
47.78	45
47.8	41
47.82	51
47.84	32
47.86	40
47.88	53
47.9	40
47.92	46
47.94	40
47.96	41
47.98	36
48	41
48.02	37
48.04	37
48.06	32
48.08	44
48.1	34
48.12	39
48.14	42
48.16	35
48.18	46
48.2	38
48.22	42
48.24	38
48.26	43
48.28	41
48.3	27
48.32	38
48.34	36
48.36	41
48.38	41
48.4	45
48.42	54
48.44	37
48.46	35
48.48	36
48.5	35
48.52	45
48.54	42
48.56	39
48.58	50
48.6	38
48.62	35
48.64	36
48.66	30
48.68	36
48.7	31
48.72	40
48.74	45
48.76	39
48.78	31
48.8	33
48.82	31
48.84	32
48.86	27
48.88	27
48.9	33
48.92	28
48.94	31
48.96	30
48.98	41
49	25
49.02	39
49.04	36
49.06	32
49.08	42
49.1	44
49.12	34
49.14	34
49.16	36
49.18	34
49.2	45
49.22	36
49.24	43
49.26	49
49.28	50
49.3	39
49.32	45
49.34	46
49.36	42
49.38	41
49.4	43
49.42	43
49.44	39
49.46	41
49.48	32
49.5	29
49.52	38
49.54	40
49.56	45
49.58	31
49.6	34
49.62	45
49.64	37
49.66	46
49.68	30
49.7	41
49.72	47
49.74	42
49.76	41
49.78	40
49.8	34
49.82	40
49.84	40
49.86	39
49.88	35
49.9	41
49.92	40
49.94	42
49.96	38
49.98	36
50	33
50.02	31
50.04	40
50.06	44
50.08	43
50.1	35
50.12	43
50.14	42
50.16	46
50.18	37
50.2	39
50.22	45
50.24	41
50.26	59
50.28	37
50.3	47
50.32	41
50.34	35
50.36	42
50.38	38
50.4	41
50.42	45
50.44	39
50.46	35
50.48	32
50.5	31
50.52	46
50.54	34
50.56	46
50.58	35
50.6	42
50.62	40
50.64	42
50.66	40
50.68	53
50.7	41
50.72	43
50.74	32
50.76	55
50.78	48
50.8	35
50.82	45
50.84	33
50.86	38
50.88	40
50.9	42
50.92	34
50.94	31
50.96	40
50.98	45
51	45
51.02	59
51.04	43
51.06	49
51.08	47
51.1	31
51.12	41
51.14	44
51.16	52
51.18	48
51.2	58
51.22	35
51.24	45
51.26	44
51.28	48
51.3	47
51.32	52
51.34	59
51.36	66
51.38	72
51.4	86
51.42	100
51.44	104
51.46	100
51.48	63
51.5	67
51.52	61
51.54	76
51.56	62
51.58	69
51.6	49
51.62	57
51.64	48
51.66	38
51.68	45
51.7	38
51.72	38
51.74	53
51.76	58
51.78	40
51.8	57
51.82	46
51.84	51
51.86	39
51.88	41
51.9	38
51.92	35
51.94	43
51.96	38
51.98	43
52	48
52.02	32
52.04	24
52.06	47
52.08	41
52.1	39
52.12	29
52.14	54
52.16	34
52.18	35
52.2	47
52.22	55
52.24	31
52.26	43
52.28	32
52.3	42
52.32	51
52.34	61
52.36	56
52.38	45
52.4	53
52.42	61
52.44	68
52.46	69
52.48	75
52.5	81
52.52	59
52.54	66
52.56	60
52.58	69
52.6	69
52.62	62
52.64	68
52.66	77
52.68	65
52.7	69
52.72	70
52.74	65
52.76	63
52.78	64
52.8	39
52.82	51
52.84	59
52.86	49
52.88	49
52.9	53
52.92	49
52.94	41
52.96	52
52.98	37
53	40
53.02	45
53.04	41
53.06	50
53.08	42
53.1	36
53.12	39
53.14	48
53.16	50
53.18	49
53.2	58
53.22	52
53.24	40
53.26	66
53.28	64
53.3	68
53.32	73
53.34	60
53.36	65
53.38	66
53.4	44
53.42	72
53.44	57
53.46	50
53.48	60
53.5	57
53.52	57
53.54	47
53.56	63
53.58	49
53.6	51
53.62	51
53.64	28
53.66	39
53.68	36
53.7	27
53.72	53
53.74	50
53.76	49
53.78	41
53.8	38
53.82	44
53.84	54
53.86	35
53.88	52
53.9	44
53.92	35
53.94	47
53.96	42
53.98	37
54	27
54.02	39
54.04	28
54.06	47
54.08	42
54.1	39
54.12	38
54.14	45
54.16	33
54.18	34
54.2	43
54.22	38
54.24	43
54.26	41
54.28	35
54.3	38
54.32	46
54.34	54
54.36	45
54.38	48
54.4	47
54.42	38
54.44	39
54.46	42
54.48	29
54.5	44
54.52	59
54.54	54
54.56	52
54.58	45
54.6	34
54.62	33
54.64	45
54.66	38
54.68	49
54.7	41
54.72	29
54.74	45
54.76	55
54.78	52
54.8	47
54.82	41
54.84	49
54.86	58
54.88	66
54.9	71
54.92	83
54.94	59
54.96	63
54.98	84
55	48
55.02	67
55.04	48
55.06	53
55.08	66
55.1	59
55.12	53
55.14	63
55.16	63
55.18	69
55.2	66
55.22	56
55.24	57
55.26	74
55.28	48
55.3	46
55.32	68
55.34	59
55.36	60
55.38	53
55.4	52
55.42	45
55.44	38
55.46	47
55.48	49
55.5	41
55.52	58
55.54	47
55.56	38
55.58	34
55.6	43
55.62	38
55.64	44
55.66	49
55.68	50
55.7	63
55.72	48
55.74	48
55.76	56
55.78	53
55.8	45
55.82	65
55.84	61
55.86	47
55.88	48
55.9	45
55.92	43
55.94	49
55.96	32
55.98	47
56	40
56.02	41
56.04	51
56.06	48
56.08	47
56.1	46
56.12	30
56.14	48
56.16	40
56.18	47
56.2	34
56.22	51
56.24	56
56.26	45
56.28	39
56.3	35
56.32	28
56.34	37
56.36	38
56.38	48
56.4	40
56.42	44
56.44	42
56.46	37
56.48	49
56.5	33
56.52	46
56.54	32
56.56	39
56.58	39
56.6	41
56.62	34
56.64	40
56.66	32
56.68	35
56.7	42
56.72	46
56.74	34
56.76	43
56.78	49
56.8	42
56.82	47
56.84	52
56.86	36
56.88	39
56.9	47
56.92	35
56.94	35
56.96	38
56.98	41
57	45
57.02	41
57.04	39
57.06	46
57.08	41
57.1	50
57.12	40
57.14	33
57.16	35
57.18	34
57.2	46
57.22	48
57.24	40
57.26	48
57.28	47
57.3	49
57.32	32
57.34	41
57.36	53
57.38	53
57.4	45
57.42	46
57.44	37
57.46	38
57.48	45
57.5	58
57.52	48
57.54	42
57.56	41
57.58	50
57.6	58
57.62	45
57.64	48
57.66	39
57.68	39
57.7	42
57.72	38
57.74	48
57.76	36
57.78	46
57.8	47
57.82	58
57.84	60
57.86	63
57.88	59
57.9	76
57.92	64
57.94	73
57.96	71
57.98	97
58	108
58.02	135
58.04	167
58.06	209
58.08	273
58.1	374
58.12	419
58.14	440
58.16	467
58.18	450
58.2	454
58.22	416
58.24	412
58.26	386
58.28	322
58.3	286
58.32	333
58.34	284
58.36	243
58.38	213
58.4	191
58.42	166
58.44	135
58.46	107
58.48	108
58.5	95
58.52	95
58.54	99
58.56	84
58.58	106
58.6	112
58.62	121
58.64	136
58.66	156
58.68	190
58.7	202
58.72	251
58.74	242
58.76	226
58.78	253
58.8	219
58.82	189
58.84	157
58.86	137
58.88	150
58.9	168
58.92	157
58.94	152
58.96	122
58.98	109
59	90
59.02	73
59.04	51
59.06	75
59.08	69
59.1	66
59.12	49
59.14	51
59.16	60
59.18	56
59.2	47
59.22	50
59.24	48
59.26	45
59.28	60
59.3	42
59.32	49
59.34	42
59.36	45
59.38	53
59.4	48
59.42	34
59.44	46
59.46	41
59.48	37
59.5	48
59.52	36
59.54	38
59.56	33
59.58	57
59.6	35
59.62	43
59.64	35
59.66	27
59.68	34
59.7	46
59.72	47
59.74	54
59.76	47
59.78	54
59.8	47
59.82	33
59.84	33
59.86	44
59.88	33
59.9	30
59.92	50
59.94	45
59.96	41
59.98	42
60	56
60.02	41
60.04	45
60.06	44
60.08	48
60.1	43
60.12	58
60.14	40
60.16	37
60.18	46
60.2	35
60.22	62
60.24	44
60.26	36
60.28	40
60.3	41
60.32	58
60.34	45
60.36	59
60.38	64
60.4	60
60.42	51
60.44	51
60.46	59
60.48	52
60.5	55
60.52	30
60.54	45
60.56	49
60.58	41
60.6	51
60.62	51
60.64	54
60.66	47
60.68	33
60.7	35
60.72	47
60.74	45
60.76	50
60.78	42
60.8	43
60.82	36
60.84	37
60.86	45
60.88	31
60.9	38
60.92	43
60.94	45
60.96	59
60.98	60
61	49
61.02	37
61.04	40
61.06	32
61.08	56
61.1	31
61.12	37
61.14	52
61.16	48
61.18	47
61.2	48
61.22	41
61.24	41
61.26	33
61.28	40
61.3	38
61.32	45
61.34	50
61.36	42
61.38	41
61.4	56
61.42	64
61.44	36
61.46	43
61.48	43
61.5	51
61.52	39
61.54	53
61.56	35
61.58	40
61.6	42
61.62	57
61.64	47
61.66	48
61.68	44
61.7	41
61.72	45
61.74	39
61.76	47
61.78	43
61.8	48
61.82	43
61.84	49
61.86	54
61.88	47
61.9	52
61.92	53
61.94	61
61.96	71
61.98	72
62	79
62.02	71
62.04	80
62.06	76
62.08	54
62.1	86
62.12	88
62.14	71
62.16	73
62.18	78
62.2	84
62.22	94
62.24	72
62.26	70
62.28	52
62.3	88
62.32	59
62.34	44
62.36	61
62.38	62
62.4	52
62.42	63
62.44	45
62.46	58
62.48	46
62.5	53
62.52	52
62.54	58
62.56	48
62.58	53
62.6	66
62.62	55
62.64	77
62.66	79
62.68	93
62.7	92
62.72	102
62.74	95
62.76	78
62.78	64
62.8	81
62.82	59
62.84	68
62.86	68
62.88	80
62.9	69
62.92	68
62.94	63
62.96	64
62.98	54
63	55
63.02	41
63.04	47
63.06	45
63.08	36
63.1	57
63.12	49
63.14	48
63.16	60
63.18	43
63.2	56
63.22	44
63.24	38
63.26	48
63.28	49
63.3	45
63.32	45
63.34	42
63.36	50
63.38	33
63.4	41
63.42	55
63.44	49
63.46	34
63.48	32
63.5	42
63.52	29
63.54	43
63.56	43
63.58	43
63.6	46
63.62	37
63.64	61
63.66	57
63.68	49
63.7	45
63.72	43
63.74	45
63.76	42
63.78	33
63.8	45
63.82	50
63.84	45
63.86	49
63.88	44
63.9	37
63.92	45
63.94	38
63.96	34
63.98	58
64	51
64.02	25
64.04	39
64.06	43
64.08	36
64.1	42
64.12	38
64.14	33
64.16	52
64.18	54
64.2	44
64.22	47
64.24	47
64.26	40
64.28	42
64.3	45
64.32	44
64.34	44
64.36	42
64.38	43
64.4	47
64.42	35
64.44	38
64.46	39
64.48	46
64.5	49
64.52	41
64.54	48
64.56	37
64.58	39
64.6	37
64.62	36
64.64	34
64.66	35
64.68	38
64.7	40
64.72	48
64.74	44
64.76	50
64.78	44
64.8	37
64.82	52
64.84	40
64.86	29
64.88	47
64.9	29
64.92	41
64.94	48
64.96	53
64.98	39
65	37
65.02	49
65.04	36
65.06	47
65.08	49
65.1	42
65.12	38
65.14	38
65.16	38
65.18	48
65.2	47
65.22	38
65.24	31
65.26	46
65.28	43
65.3	40
65.32	47
65.34	59
65.36	58
65.38	58
65.4	60
65.42	58
65.44	62
65.46	87
65.48	78
65.5	62
65.52	70
65.54	59
65.56	55
65.58	52
65.6	57
65.62	42
65.64	57
65.66	47
65.68	56
65.7	51
65.72	43
65.74	59
65.76	54
65.78	53
65.8	44
65.82	51
65.84	56
65.86	46
65.88	49
65.9	43
65.92	50
65.94	59
65.96	45
65.98	46
66	51
66.02	31
66.04	40
66.06	44
66.08	40
66.1	49
66.12	46
66.14	43
66.16	43
66.18	57
66.2	45
66.22	48
66.24	51
66.26	46
66.28	40
66.3	54
66.32	36
66.34	38
66.36	50
66.38	43
66.4	44
66.42	42
66.44	50
66.46	43
66.48	44
66.5	33
66.52	43
66.54	38
66.56	36
66.58	66
66.6	38
66.62	42
66.64	46
66.66	40
66.68	49
66.7	38
66.72	47
66.74	41
66.76	42
66.78	39
66.8	42
66.82	41
66.84	33
66.86	41
66.88	36
66.9	38
66.92	45
66.94	60
66.96	44
66.98	40
67	43
67.02	58
67.04	45
67.06	44
67.08	48
67.1	50
67.12	38
67.14	41
67.16	48
67.18	42
67.2	39
67.22	48
67.24	38
67.26	33
67.28	46
67.3	59
67.32	51
67.34	48
67.36	43
67.38	46
67.4	46
67.42	51
67.44	48
67.46	54
67.48	53
67.5	52
67.52	51
67.54	46
67.56	42
67.58	41
67.6	47
67.62	39
67.64	53
67.66	55
67.68	43
67.7	46
67.72	59
67.74	48
67.76	55
67.78	53
67.8	44
67.82	48
67.84	61
67.86	43
67.88	55
67.9	35
67.92	59
67.94	71
67.96	65
67.98	61
68	88
68.02	115
68.04	105
68.06	125
68.08	123
68.1	113
68.12	90
68.14	95
68.16	57
68.18	77
68.2	81
68.22	86
68.24	79
68.26	91
68.28	89
68.3	85
68.32	81
68.34	67
68.36	72
68.38	61
68.4	75
68.42	71
68.44	77
68.46	74
68.48	87
68.5	86
68.52	96
68.54	92
68.56	103
68.58	104
68.6	124
68.62	137
68.64	149
68.66	154
68.68	153
68.7	176
68.72	206
68.74	205
68.76	218
68.78	230
68.8	250
68.82	240
68.84	239
68.86	212
68.88	158
68.9	149
68.92	134
68.94	127
68.96	130
68.98	112
69	156
69.02	120
69.04	106
69.06	112
69.08	74
69.1	73
69.12	66
69.14	58
69.16	59
69.18	50
69.2	58
69.22	51
69.24	48
69.26	58
69.28	44
69.3	43
69.32	37
69.34	51
69.36	41
69.38	53
69.4	56
69.42	58
69.44	54
69.46	39
69.48	47
69.5	44
69.52	37
69.54	56
69.56	47
69.58	44
69.6	46
69.62	50
69.64	52
69.66	46
69.68	53
69.7	53
69.72	43
69.74	49
69.76	46
69.78	41
69.8	41
69.82	47
69.84	41
69.86	48
69.88	41
69.9	51
69.92	44
69.94	45
69.96	49
69.98	39
70	49
70.02	49
70.04	52
70.06	32
70.08	46
70.1	46
70.12	50
70.14	44
70.16	60
70.18	36
70.2	52
70.22	33
70.24	46
70.26	41
70.28	54
70.3	48
70.32	37
70.34	56
70.36	38
70.38	40
70.4	40
70.42	44
70.44	43
70.46	45
70.48	32
70.5	30
70.52	44
70.54	46
70.56	37
70.58	37
70.6	48
70.62	44
70.64	48
70.66	35
70.68	46
70.7	40
70.72	45
70.74	46
70.76	51
70.78	49
70.8	43
70.82	57
70.84	48
70.86	53
70.88	42
70.9	65
70.92	57
70.94	48
70.96	43
70.98	32
71	49
71.02	51
71.04	43
71.06	43
71.08	32
71.1	31
71.12	45
71.14	31
71.16	44
71.18	44
71.2	54
71.22	49
71.24	42
71.26	49
71.28	35
71.3	52
71.32	46
71.34	44
71.36	44
71.38	42
71.4	45
71.42	46
71.44	42
71.46	44
71.48	48
71.5	55
71.52	53
71.54	49
71.56	38
71.58	37
71.6	36
71.62	43
71.64	42
71.66	42
71.68	52
71.7	43
71.72	42
71.74	52
71.76	50
71.78	34
71.8	49
71.82	49
71.84	41
71.86	41
71.88	33
71.9	48
71.92	50
71.94	47
71.96	37
71.98	48
72	47
72.02	55
72.04	39
72.06	42
72.08	43
72.1	40
72.12	48
72.14	52
72.16	41
72.18	45
72.2	57
72.22	49
72.24	29
72.26	44
72.28	48
72.3	41
72.32	50
72.34	39
72.36	42
72.38	36
72.4	54
72.42	44
72.44	46
72.46	45
72.48	45
72.5	40
72.52	38
72.54	39
72.56	47
72.58	40
72.6	41
72.62	56
72.64	58
72.66	40
72.68	40
72.7	63
72.72	53
72.74	52
72.76	56
72.78	55
72.8	52
72.82	40
72.84	58
72.86	49
72.88	48
72.9	61
72.92	70
72.94	47
72.96	55
72.98	59
73	52
73.02	66
73.04	46
73.06	42
73.08	55
73.1	50
73.12	56
73.14	61
73.16	43
73.18	49
73.2	42
73.22	50
73.24	41
73.26	53
73.28	55
73.3	62
73.32	55
73.34	43
73.36	44
73.38	68
73.4	83
73.42	59
73.44	73
73.46	46
73.48	87
73.5	68
73.52	73
73.54	74
73.56	82
73.58	63
73.6	67
73.62	64
73.64	55
73.66	63
73.68	58
73.7	64
73.72	70
73.74	59
73.76	59
73.78	44
73.8	49
73.82	41
73.84	41
73.86	54
73.88	35
73.9	49
73.92	55
73.94	46
73.96	44
73.98	74
74	46
74.02	52
74.04	37
74.06	48
74.08	51
74.1	43
74.12	58
74.14	41
74.16	52
74.18	43
74.2	51
74.22	47
74.24	53
74.26	38
74.28	48
74.3	47
74.32	45
74.34	48
74.36	48
74.38	49
74.4	47
74.42	42
74.44	53
74.46	56
74.48	46
74.5	43
74.52	39
74.54	47
74.56	42
74.58	39
74.6	45
74.62	44
74.64	34
74.66	46
74.68	36
74.7	54
74.72	32
74.74	55
74.76	48
74.78	51
74.8	42
74.82	51
74.84	60
74.86	56
74.88	51
74.9	63
74.92	56
74.94	46
74.96	60
74.98	54
75	47
75.02	41
75.04	48
75.06	58
75.08	63
75.1	58
75.12	56
75.14	51
75.16	46
75.18	46
75.2	49
75.22	52
75.24	51
75.26	45
75.28	49
75.3	50
75.32	42
75.34	52
75.36	56
75.38	57
75.4	44
75.42	54
75.44	40
75.46	41
75.48	65
75.5	58
75.52	58
75.54	56
75.56	57
75.58	56
75.6	57
75.62	52
75.64	53
75.66	53
75.68	48
75.7	58
75.72	57
75.74	53
75.76	52
75.78	49
75.8	47
75.82	42
75.84	37
75.86	43
75.88	42
75.9	47
75.92	50
75.94	49
75.96	51
75.98	45
76	53
76.02	48
76.04	38
76.06	34
76.08	38
76.1	51
76.12	50
76.14	44
76.16	46
76.18	39
76.2	53
76.22	29
76.24	44
76.26	44
76.28	37
76.3	60
76.32	48
76.34	51
76.36	52
76.38	45
76.4	63
76.42	51
76.44	43
76.46	59
76.48	49
76.5	44
76.52	43
76.54	48
76.56	45
76.58	53
76.6	46
76.62	38
76.64	53
76.66	50
76.68	53
76.7	38
76.72	52
76.74	37
76.76	45
76.78	40
76.8	57
76.82	39
76.84	49
76.86	32
76.88	35
76.9	47
76.92	50
76.94	38
76.96	52
76.98	52
77	53
77.02	47
77.04	43
77.06	38
77.08	44
77.1	49
77.12	51
77.14	56
77.16	55
77.18	52
77.2	55
77.22	48
77.24	53
77.26	65
77.28	55
77.3	51
77.32	56
77.34	64
77.36	74
77.38	98
77.4	91
77.42	90
77.44	81
77.46	108
77.48	109
77.5	130
77.52	110
77.54	119
77.56	116
77.58	155
77.6	121
77.62	138
77.64	109
77.66	135
77.68	111
77.7	102
77.72	117
77.74	105
77.76	114
77.78	122
77.8	117
77.82	95
77.84	97
77.86	92
77.88	82
77.9	77
77.92	77
77.94	78
77.96	74
77.98	76
78	81
78.02	70
78.04	76
78.06	51
78.08	66
78.1	44
78.12	61
78.14	59
78.16	42
78.18	53
78.2	54
78.22	41
78.24	51
78.26	43
78.28	53
78.3	44
78.32	48
78.34	43
78.36	56
78.38	36
78.4	47
78.42	50
78.44	55
78.46	48
78.48	48
78.5	55
78.52	44
78.54	58
78.56	46
78.58	44
78.6	66
78.62	42
78.64	31
78.66	54
78.68	51
78.7	73
78.72	52
78.74	62
78.76	62
78.78	41
78.8	75
78.82	63
78.84	80
78.86	69
78.88	99
78.9	92
78.92	85
78.94	80
78.96	116
78.98	107
79	120
79.02	119
79.04	115
79.06	110
79.08	107
79.1	121
79.12	92
79.14	61
79.16	85
79.18	83
79.2	80
79.22	96
79.24	77
79.26	65
79.28	73
79.3	87
79.32	73
79.34	51
79.36	66
79.38	65
79.4	53
79.42	57
79.44	47
79.46	72
79.48	53
79.5	48
79.52	52
79.54	58
79.56	46
79.58	53
79.6	54
79.62	52
79.64	62
79.66	44
79.68	54
79.7	62
79.72	54
79.74	63
79.76	55
79.78	49
79.8	42
79.82	44
79.84	64
79.86	51
79.88	49
79.9	54
79.92	53
79.94	50
79.96	55
79.98	53
80	57
80.02	51
80.04	57
80.06	52
80.08	51
80.1	53
80.12	58
80.14	51
80.16	52
80.18	49
80.2	65
80.22	44
80.24	59
80.26	42
80.28	44
80.3	42
80.32	56
80.34	53
80.36	40
80.38	50
80.4	54
80.42	53
80.44	46
80.46	53
80.48	45
80.5	56
80.52	56
80.54	48
80.56	55
80.58	44
80.6	48
80.62	41
80.64	45
80.66	58
80.68	52
80.7	44
80.72	40
80.74	43
80.76	49
80.78	53
80.8	44
80.82	44
80.84	48
80.86	48
80.88	43
80.9	49
80.92	36
80.94	59
80.96	53
80.98	60
81	44
81.02	49
81.04	54
81.06	51
81.08	48
81.1	45
81.12	46
81.14	44
81.16	48
81.18	41
81.2	52
81.22	41
81.24	41
81.26	66
81.28	53
81.3	44
81.32	54
81.34	59
81.36	55
81.38	56
81.4	45
81.42	55
81.44	43
81.46	51
81.48	49
81.5	52
81.52	49
81.54	58
81.56	49
81.58	47
81.6	50
81.62	50
81.64	56
81.66	72
81.68	91
81.7	69
81.72	72
81.74	64
81.76	48
81.78	62
81.8	55
81.82	47
81.84	61
81.86	51
81.88	52
81.9	49
81.92	79
81.94	65
81.96	58
81.98	58
82	50
82.02	62
82.04	56
82.06	60
82.08	50
82.1	65
82.12	69
82.14	59
82.16	60
82.18	58
82.2	54
82.22	72
82.24	62
82.26	64
82.28	63
82.3	90
82.32	54
82.34	61
82.36	65
82.38	70
82.4	66
82.42	63
82.44	61
82.46	73
82.48	76
82.5	48
82.52	61
82.54	67
82.56	44
82.58	48
82.6	60
82.62	55
82.64	50
82.66	35
82.68	46
82.7	53
82.72	46
82.74	57
82.76	52
82.78	51
82.8	50
82.82	57
82.84	49
82.86	67
82.88	49
82.9	46
82.92	60
82.94	53
82.96	47
82.98	39
83	38
83.02	42
83.04	49
83.06	46
83.08	43
83.1	50
83.12	40
83.14	43
83.16	53
83.18	39
83.2	54
83.22	55
83.24	61
83.26	38
83.28	47
83.3	48
83.32	44
83.34	50
83.36	45
83.38	52
83.4	47
83.42	55
83.44	68
83.46	54
83.48	51
83.5	53
83.52	63
83.54	52
83.56	61
83.58	56
83.6	60
83.62	51
83.64	57
83.66	63
83.68	52
83.7	41
83.72	45
83.74	55
83.76	66
83.78	49
83.8	47
83.82	68
83.84	60
83.86	42
83.88	47
83.9	59
83.92	51
83.94	48
83.96	58
83.98	40
84	42
84.02	51
84.04	53
84.06	53
84.08	35
84.1	60
84.12	42
84.14	56
84.16	34
84.18	56
84.2	44
84.22	42
84.24	63
84.26	41
84.28	47
84.3	43
84.32	41
84.34	57
84.36	56
84.38	42
84.4	41
84.42	47
84.44	58
84.46	36
84.48	43
84.5	50
84.52	47
84.54	45
84.56	56
84.58	47
84.6	35
84.62	54
84.64	51
84.66	64
84.68	53
84.7	60
84.72	48
84.74	42
84.76	46
84.78	43
84.8	55
84.82	43
84.84	50
84.86	43
84.88	44
84.9	41
84.92	41
84.94	48
84.96	41
84.98	51
85	36
85.02	51
85.04	63
85.06	36
85.08	38
85.1	40
85.12	40
85.14	47
85.16	42
85.18	54
85.2	61
85.22	53
85.24	55
85.26	42
85.28	41
85.3	56
85.32	51
85.34	48
85.36	43
85.38	47
85.4	44
85.42	37
85.44	55
85.46	49
85.48	44
85.5	53
85.52	43
85.54	38
85.56	36
85.58	49
85.6	53
85.62	49
85.64	41
85.66	45
85.68	55
85.7	45
85.72	57
85.74	44
85.76	39
85.78	32
85.8	39
85.82	39
85.84	42
85.86	46
85.88	43
85.9	57
85.92	44
85.94	42
85.96	61
85.98	55
86	49
86.02	49
86.04	39
86.06	38
86.08	37
86.1	38
86.12	41
86.14	49
86.16	40
86.18	38
86.2	41
86.22	52
86.24	46
86.26	40
86.28	45
86.3	47
86.32	47
86.34	57
86.36	31
86.38	60
86.4	55
86.42	33
86.44	46
86.46	47
86.48	51
86.5	45
86.52	56
86.54	39
86.56	47
86.58	45
86.6	58
86.62	55
86.64	61
86.66	53
86.68	52
86.7	55
86.72	49
86.74	40
86.76	39
86.78	51
86.8	61
86.82	61
86.84	59
86.86	61
86.88	81
86.9	71
86.92	63
86.94	94
86.96	84
86.98	78
87	95
87.02	80
87.04	95
87.06	94
87.08	106
87.1	106
87.12	100
87.14	138
87.16	112
87.18	139
87.2	157
87.22	147
87.24	150
87.26	124
87.28	118
87.3	112
87.32	93
87.34	94
87.36	94
87.38	77
87.4	104
87.42	107
87.44	94
87.46	95
87.48	109
87.5	120
87.52	95
87.54	94
87.56	97
87.58	90
87.6	85
87.62	74
87.64	78
87.66	83
87.68	69
87.7	73
87.72	62
87.74	72
87.76	62
87.78	77
87.8	49
87.82	68
87.84	59
87.86	52
87.88	51
87.9	55
87.92	59
87.94	61
87.96	71
87.98	75
88	50
88.02	59
88.04	51
88.06	49
88.08	49
88.1	53
88.12	49
88.14	39
88.16	51
88.18	65
88.2	47
88.22	32
88.24	41
88.26	54
88.28	48
88.3	53
88.32	37
88.34	53
88.36	56
88.38	68
88.4	43
88.42	41
88.44	42
88.46	36
88.48	56
88.5	48
88.52	46
88.54	44
88.56	49
88.58	49
88.6	49
88.62	54
88.64	38
88.66	46
88.68	41
88.7	45
88.72	47
88.74	52
88.76	38
88.78	50
88.8	39
88.82	52
88.84	57
88.86	46
88.88	54
88.9	50
88.92	52
88.94	41
88.96	34
88.98	41
89	66
89.02	34
89.04	49
89.06	46
89.08	52
89.1	37
89.12	48
89.14	42
89.16	53
89.18	53
89.2	39
89.22	40
89.24	59
89.26	48
89.28	51
89.3	55
89.32	43
89.34	45
89.36	52
89.38	46
89.4	45
89.42	43
89.44	30
89.46	44
89.48	44
89.5	47
89.52	54
89.54	56
89.56	41
89.58	46
89.6	33
89.62	48
89.64	35
89.66	43
89.68	33
89.7	41
89.72	44
89.74	50
89.76	45
89.78	46
89.8	56
89.82	48
89.84	41
89.86	52
89.88	46
89.9	37
89.92	49
89.94	39
89.96	35
89.98	55
90	62
90.02	51
90.04	46
90.06	38
90.08	53
90.1	40
90.12	48
90.14	49
90.16	53
90.18	57
90.2	57
90.22	62
90.24	51
90.26	53
90.28	70
90.3	59
90.32	62
90.34	55
90.36	60
90.38	48
90.4	41
90.42	54
90.44	50
90.46	48
90.48	50
90.5	67
90.52	42
90.54	54
90.56	59
90.58	33
90.6	35
90.62	54
90.64	49
90.66	43
90.68	58
90.7	42
90.72	49
90.74	43
90.76	54
90.78	47
90.8	46
90.82	37
90.84	52
90.86	44
90.88	47
90.9	62
90.92	56
90.94	48
90.96	55
90.98	52
91	46
91.02	56
91.04	36
91.06	64
91.08	53
91.1	56
91.12	42
91.14	56
91.16	55
91.18	60
91.2	50
91.22	66
91.24	44
91.26	52
91.28	44
91.3	45
91.32	45
91.34	43
91.36	52
91.38	46
91.4	63
91.42	53
91.44	59
91.46	64
91.48	52
91.5	61
91.52	63
91.54	76
91.56	68
91.58	65
91.6	69
91.62	79
91.64	55
91.66	65
91.68	62
91.7	71
91.72	60
91.74	62
91.76	66
91.78	60
91.8	51
91.82	57
91.84	68
91.86	62
91.88	69
91.9	61
91.92	71
91.94	54
91.96	58
91.98	49
92	46
92.02	39
92.04	60
92.06	46
92.08	37
92.1	56
92.12	61
92.14	49
92.16	40
92.18	46
92.2	63
92.22	53
92.24	45
92.26	40
92.28	46
92.3	44
92.32	56
92.34	49
92.36	54
92.38	48
92.4	51
92.42	54
92.44	42
92.46	44
92.48	50
92.5	49
92.52	52
92.54	55
92.56	51
92.58	51
92.6	51
92.62	55
92.64	50
92.66	45
92.68	62
92.7	53
92.72	54
92.74	50
92.76	51
92.78	56
92.8	40
92.82	46
92.84	50
92.86	56
92.88	54
92.9	54
92.92	62
92.94	56
92.96	55
92.98	58
93	64
93.02	49
93.04	59
93.06	50
93.08	51
93.1	47
93.12	57
93.14	56
93.16	51
93.18	44
93.2	63
93.22	52
93.24	51
93.26	59
93.28	48
93.3	63
93.32	49
93.34	43
93.36	31
93.38	32
93.4	45
93.42	56
93.44	48
93.46	58
93.48	51
93.5	54
93.52	51
93.54	58
93.56	65
93.58	69
93.6	59
93.62	59
93.64	69
93.66	57
93.68	58
93.7	54
93.72	68
93.74	66
93.76	58
93.78	45
93.8	44
93.82	57
93.84	64
93.86	53
93.88	51
93.9	47
93.92	59
93.94	49
93.96	63
93.98	53
94	60
94.02	57
94.04	54
94.06	63
94.08	46
94.1	59
94.12	35
94.14	46
94.16	47
94.18	46
94.2	43
94.22	52
94.24	37
94.26	40
94.28	49
94.3	51
94.32	53
94.34	37
94.36	42
94.38	43
94.4	52
94.42	43
94.44	46
94.46	46
94.48	41
94.5	47
94.52	58
94.54	49
94.56	55
94.58	51
94.6	35
94.62	38
94.64	36
94.66	44
94.68	57
94.7	47
94.72	55
94.74	52
94.76	41
94.78	45
94.8	48
94.82	38
94.84	43
94.86	41
94.88	45
94.9	47
94.92	50
94.94	61
94.96	44
94.98	59
95	53
95.02	55
95.04	47
95.06	35
95.08	42
95.1	52
95.12	36
95.14	48
95.16	47
95.18	62
95.2	45
95.22	48
95.24	59
95.26	55
95.28	45
95.3	52
95.32	49
95.34	50
95.36	50
95.38	35
95.4	42
95.42	58
95.44	57
95.46	57
95.48	53
95.5	57
95.52	58
95.54	62
95.56	71
95.58	67
95.6	76
95.62	69
95.64	77
95.66	97
95.68	102
95.7	99
95.72	99
95.74	97
95.76	88
95.78	95
95.8	110
95.82	92
95.84	93
95.86	67
95.88	89
95.9	72
95.92	72
95.94	86
95.96	74
95.98	99
96	89
96.02	91
96.04	97
96.06	100
96.08	80
96.1	108
96.12	83
96.14	115
96.16	99
96.18	111
96.2	93
96.22	85
96.24	96
96.26	87
96.28	112
96.3	106
96.32	95
96.34	112
96.36	104
96.38	92
96.4	97
96.42	83
96.44	71
96.46	80
96.48	82
96.5	71
96.52	82
96.54	78
96.56	68
96.58	79
96.6	88
96.62	77
96.64	72
96.66	78
96.68	88
96.7	72
96.72	71
96.74	72
96.76	73
96.78	63
96.8	70
96.82	79
96.84	56
96.86	81
96.88	84
96.9	62
96.92	90
96.94	97
96.96	91
96.98	99
97	105
97.02	138
97.04	112
97.06	110
97.08	90
97.1	127
97.12	104
97.14	90
97.16	99
97.18	86
97.2	86
97.22	97
97.24	87
97.26	74
97.28	81
97.3	78
97.32	81
97.34	81
97.36	103
97.38	79
97.4	67
97.42	79
97.44	80
97.46	70
97.48	86
97.5	75
97.52	61
97.54	63
97.56	59
97.58	63
97.6	47
97.62	41
97.64	56
97.66	51
97.68	44
97.7	57
97.72	58
97.74	72
97.76	52
97.78	54
97.8	40
97.82	55
97.84	43
97.86	43
97.88	53
97.9	54
97.92	51
97.94	39
97.96	45
97.98	44
98	45
98.02	43
98.04	58
98.06	42
98.08	44
98.1	50
98.12	54
98.14	53
98.16	39
98.18	52
98.2	43
98.22	54
98.24	37
98.26	33
98.28	55
98.3	46
98.32	51
98.34	50
98.36	44
98.38	46
98.4	44
98.42	41
98.44	54
98.46	55
98.48	40
98.5	46
98.52	45
98.54	57
98.56	49
98.58	48
98.6	42
98.62	48
98.64	49
98.66	36
98.68	55
98.7	43
98.72	50
98.74	46
98.76	45
98.78	56
98.8	39
98.82	52
98.84	34
98.86	52
98.88	44
98.9	47
98.92	45
98.94	45
98.96	59
98.98	41
99	38
99.02	54
99.04	45
99.06	48
99.08	47
99.1	57
99.12	42
99.14	47
99.16	45
99.18	46
99.2	52
99.22	64
99.24	34
99.26	42
99.28	50
99.3	53
99.32	48
99.34	56
99.36	40
99.38	49
99.4	56
99.42	44
99.44	50
99.46	56
99.48	45
99.5	53
99.52	40
99.54	56
99.56	47
99.58	52
99.6	55
99.62	50
99.64	50
99.66	63
99.68	50
99.7	59
99.72	53
99.74	63
99.76	51
99.78	44
99.8	47
99.82	71
99.84	43
99.86	52
99.88	48
99.9	51
99.92	48
99.94	47
99.96	41
99.98	57
100	54
